#Name:: Glass1_UV;Timestamp:: 2026-Feb-13 14:02:25;Device:: Ossila Spectrometer (COM3);Colour:: (57: 207: 25);Integration Time (ms):: 60.0;Accumulation Number:: 1;Averaging Number:: 1;Delay #Time:: 0;Trigger Mode:: Internal;Measurement Type:: Transmission/Reflection;Comments:: 
#Wavelength (nm),Intensity,Smoothed,Background,Reference
319.68,0.8629032258064516,1.1500606620713725,1600.0,124.0
320.2,1.1727272727272726,1.1046972207747063,1578.0,110.0
320.73,1.3636363636363635,1.0593337794780402,1615.0,88.0
321.25,0.5932203389830508,1.013970338181374,1705.0,59.0
321.77,2.0,0.9686068968847079,1659.0,50.0
322.3,0.42105263157894735,1.2221348536557302,1671.0,76.0
322.82,0.08823529411764706,1.2798621263830028,1687.0,68.0
323.35,1.75,2.2434984900193666,1669.0,24.0
323.87,0.6074766355140186,2.1737597894543947,1679.0,107.0
324.39,0.6,2.2583751740697795,1713.0,40.0
324.92,3.625,2.2323989431699487,1660.0,16.0
325.44,1.75,2.8807182709010415,1644.0,44.0
325.96,11.0,2.9168293820121525,1641.0,4.0
326.49,-0.10416666666666667,7.256081718460751,1682.0,-48.0
327.01,2.8461538461538463,7.44608171846075,1682.0,13.0
327.54,0.16129032258064516,7.138298699592825,1681.0,31.0
328.06,6.571428571428571,7.058950873505869,1674.0,-7.0
328.58,2.111111111111111,6.011582452453237,1620.0,63.0
329.11,44.0,5.671999119119904,1694.0,1.0
329.63,2.5,5.468515809976218,1669.0,14.0
330.15,0.5471698113207547,5.528657964158831,1617.0,106.0
330.68,0.9565217391304348,5.033419868920737,1670.0,46.0
331.2,0.5263157894736842,4.901197646698514,1644.0,57.0
331.72,-3.5,0.648975424476292,1699.0,6.0
332.24,0.8113207547169812,0.4618325673334349,1689.0,53.0
332.77,0.7627118644067796,0.4633655862013594,1664.0,59.0
333.29,1.619047619047619,0.5248562694311731,1646.0,21.0
333.81,0.7888888888888889,0.5578016135607277,1633.0,90.0
334.34,1.4777777777777779,0.977950867292071,1621.0,90.0
334.86,0.6285714285714286,0.919895714897296,1631.0,70.0
335.38,0.5625,0.8436245284566181,1646.0,48.0
335.9,1.5714285714285714,0.9745769094089991,1639.0,49.0
336.43,0.8557692307692307,0.9502334750655647,1630.0,104.0
336.95,0.7014925373134329,0.9441223639544536,1659.0,67.0
337.47,0.23076923076923078,1.0096602828257057,1688.0,39.0
338.0,0.0,1.0010293304447533,1694.0,58.0
338.52,2.9285714285714284,0.8788864733018961,1718.0,-14.0
339.04,0.5454545454545454,0.8535505140803947,1668.0,66.0
339.56,1.4166666666666667,0.7167345936823847,1655.0,48.0
340.09,1.2839506172839505,0.6950275336191603,1632.0,81.0
340.61,0.47619047619047616,0.7156797075322038,1667.0,63.0
341.13,0.35,0.49990589800839436,1687.0,40.0
341.65,0.6024096385542169,0.4767890148915112,1638.0,83.0
342.17,-0.6666666666666666,0.4068395199420163,1706.0,12.0
342.7,0.0136986301369863,0.3055631022814178,1669.0,73.0
343.22,0.20652173913043478,0.3998045197786493,1660.0,92.0
343.74,0.7708333333333334,0.40153921365620027,1691.0,48.0
344.26,0.3142857142857143,0.40298049279143283,1632.0,70.0
344.78,0.7171717171717171,0.5246471594580995,1615.0,99.0
345.31,0.2711864406779661,0.5853210920648388,1667.0,59.0
345.83,1.4186046511627908,0.6787185049286548,1662.0,43.0
346.35,0.3673469387755102,0.6800351715953215,1680.0,98.0
346.87,0.616822429906542,0.6963942107862191,1668.0,107.0
347.39,0.55,0.705111821677743,1647.0,140.0
347.92,0.6204379562043796,0.7201618523087415,1672.0,137.0
348.44,1.140495867768595,0.7541634561579798,1667.0,121.0
348.96,0.784,0.7552666001182665,1646.0,125.0
349.48,0.4778761061946903,0.767354848930891,1659.0,113.0
350.0,0.8043478260869565,0.7610505011048041,1645.0,92.0
350.52,0.42168674698795183,0.735036117249072,1691.0,83.0
351.04,1.7586206896551724,0.6641444252090546,1667.0,58.0
351.57,0.3783783783783784,0.6438839600927755,1674.0,74.0
352.09,0.7377049180327869,0.6242213494733065,1680.0,61.0
352.61,0.48695652173913045,0.6156175527801038,1689.0,115.0
353.13,0.3602941176470588,0.5771755861558429,1642.0,136.0
353.65,0.43157894736842106,0.40834054421735266,1636.0,190.0
354.17,0.5813953488372093,0.38524629612310457,1664.0,172.0
354.69,0.28125,0.34092365708056205,1704.0,96.0
355.21,0.7183098591549296,0.32422800490664905,1695.0,71.0
355.73,0.037267080745341616,0.32886844960127326,1688.0,161.0
356.26,0.07027027027027027,0.311994542779839,1658.0,185.0
356.78,0.14743589743589744,0.26527233073076373,1670.0,156.0
357.3,0.294478527607362,0.2535997728901468,1675.0,163.0
357.82,0.32,0.1943193942621032,1644.0,175.0
358.34,0.40669856459330145,0.19629376477000354,1646.0,209.0
358.86,0.2628398791540785,0.19538438480180004,1616.0,331.0
359.38,0.1141732283464567,0.18129545954266205,1668.0,254.0
359.9,0.16452442159383032,0.1520901780372321,1663.0,389.0
360.42,0.12550607287449392,0.12378743771535301,1666.0,494.0
360.94,0.05701078582434515,0.0850388108429585,1688.0,649.0
361.46,0.0611764705882353,0.06135347547808001,1684.0,850.0
361.98,0.006546644844517185,0.05073211459257043,1724.0,1222.0
362.5,0.002425712553062462,0.0362933955835454,1688.0,1649.0
363.02,0.03697259678120922,0.025588647099883614,1686.0,2299.0
363.54,0.01921229586935639,0.021065213228027943,1690.0,3123.0
364.06,0.02598652550529355,0.01630271407864087,1714.0,4156.0
364.58,0.007959619491360901,0.017085994589302933,1726.0,5151.0
365.1,0.02013723150357995,0.01804563540420587,1640.0,6704.0
365.62,0.018458588037876065,0.015312382641786736,1645.0,8343.0
366.14,0.011776447105788424,0.014450767907887123,1664.0,10020.0
366.66,0.013551479094364568,0.012700484832610211,1681.0,12102.0
367.18,0.01437944995113779,0.012534227034305031,1661.0,14326.0
367.7,0.012022120702091849,0.011178175590503414,1635.0,16636.0
368.22,0.009640069157017865,0.009816964400998841,1644.0,19087.0
368.74,0.01059614853036027,0.009117886924712422,1638.0,21706.0
369.26,0.008483694752524416,0.008492198602657984,1701.0,24164.0
369.78,0.006297041508309114,0.00798293117069428,1714.0,26838.0
370.3,0.006576717065563767,0.00746863942493707,1694.0,29498.0
370.82,0.004846476142830342,0.007167856486554036,1682.0,31982.0
371.34,0.004785672342924251,0.006838536269629819,1693.0,34060.0
371.86,0.007294595873820197,0.006780012358120186,1678.0,35917.0
372.38,0.009286775631500743,0.0069060596035079545,1649.0,37688.0
372.9,0.006879203244519739,0.006925416347952633,1663.0,38958.0
373.42,0.006632239773187525,0.007295423355836527,1657.0,39504.0
373.94,0.007302946361118106,0.007491654246791152,1654.0,39710.0
374.46,0.007898455637428081,0.007610284963109075,1667.0,39628.0
374.98,0.007557513962186811,0.007504161713659867,1693.0,39034.0
375.49,0.006770284510010538,0.0077657828222700825,1699.0,37960.0
376.01,0.00854654622166928,0.00797648384756266,1659.0,36974.0
376.53,0.006747981252470495,0.00806536852905193,1714.0,35418.0
377.05,0.008480903036999433,0.008273109449621271,1673.0,33487.0
377.57,0.008225543137008665,0.008330470562496613,1681.0,31852.0
378.09,0.0094954143306219,0.008368254876668035,1615.0,30857.0
378.61,0.008739250026113296,0.00827527101617187,1642.0,28721.0
379.13,0.008191793176010822,0.008486221823281018,1688.0,26612.0
379.65,0.00997586484312148,0.008222230419433632,1656.0,24860.0
380.16,0.008131125090940215,0.008540980453558852,1713.0,23367.0
380.68,0.007148127651724774,0.008912340341397984,1671.0,21684.0
381.2,0.007616707616707617,0.008982138883301261,1657.0,20350.0
381.72,0.008857489323561975,0.009043564247581739,1650.0,18967.0
382.24,0.005840988998525576,0.00916807443621372,1750.0,17634.0
382.76,0.01141304347826087,0.009426755054033615,1690.0,16560.0
383.28,0.01320901320901321,0.009916211972284183,1633.0,15444.0
383.79,0.00943723544514607,0.010475480545251383,1652.0,14411.0
384.31,0.008806046818815586,0.0109449384602561,1668.0,13627.0
384.83,0.011220966729441305,0.011964774547572063,1686.0,12744.0
385.35,0.010717931269139162,0.011947831358178685,1660.0,11756.0
385.87,0.012042696834230454,0.012284583458391873,1670.0,10961.0
386.38,0.013209393346379647,0.01254524387148295,1667.0,10220.0
386.9,0.01355206847360913,0.012903295064018855,1663.0,9814.0
387.42,0.0160393498716852,0.013649193409754675,1650.0,9352.0
387.94,0.011243611584327087,0.014045427155197066,1694.0,8805.0
388.46,0.016576534211145074,0.014922694606889183,1676.0,8506.0
388.97,0.012043839576056847,0.016038699344384764,1682.0,8303.0
389.49,0.012386558744174637,0.01679299711897218,1699.0,8154.0
390.01,0.0186799501867995,0.017608601049858896,1661.0,8030.0
390.53,0.014680268723563076,0.018989436259438438,1647.0,8038.0
391.05,0.02081537135115162,0.018900328273856716,1630.0,8119.0
391.56,0.024369440721335445,0.019461734555893992,1636.0,8207.0
392.08,0.02109504621948329,0.01928671504511289,1659.0,8438.0
392.6,0.024195389180552387,0.01861763931045861,1622.0,8762.0
393.12,0.025051963680122524,0.01912542845011526,1613.0,9141.0
393.63,0.015685454355327828,0.01880045108176395,1702.0,9563.0
394.15,0.01765790239642961,0.01757748779938494,1681.0,10307.0
394.67,0.010636363636363637,0.016986195604739948,1691.0,11000.0
395.19,0.01198919284025667,0.01595132402879886,1662.0,11844.0
395.7,0.019758160120129615,0.014674526578129935,1644.0,12653.0
396.22,0.017565597667638485,0.014415017258809422,1693.0,13720.0
396.74,0.012139807897545358,0.014050814046939447,1710.0,14992.0
397.25,0.015182124273033363,0.014489075027021877,1627.0,16335.0
397.77,0.013846673421141506,0.014478136176259662,1661.0,17766.0
398.29,0.012283989173433272,0.0140679307186213,1674.0,19212.0
398.8,0.013090361162122711,0.013776154472271906,1678.0,21237.0
399.32,0.01401587027772986,0.014249446822263288,1676.0,23188.0
399.84,0.015018973437187937,0.01454644634532484,1676.0,25035.0
400.35,0.011879804332634521,0.014888112320219355,1693.0,27189.0
400.87,0.015656105543745993,0.01547930126622498,1652.0,29637.0
401.39,0.014647835204144567,0.01602990603222122,1652.0,32428.0
401.9,0.016872731397459165,0.016659948930296754,1608.0,35264.0
402.42,0.018152119503648867,0.01712685508667307,1665.0,37957.0
402.94,0.017263333170086683,0.018079117346473217,1673.0,40838.0
403.45,0.018195878633489513,0.018734268492607106,1659.0,43966.0
403.97,0.018596408822085103,0.019682620529660716,1702.0,46837.0
404.49,0.02031629925848522,0.02050842769885924,1683.0,49763.0
405.0,0.019688035000951114,0.021445961107237645,1712.0,52570.0
405.52,0.021402426930635942,0.022571521193802783,1647.0,55461.0
406.04,0.02220761700508492,0.023688833592157815,1640.0,57818.0
406.55,0.02413135557468064,0.02476706395734054,1649.0,59259.0
407.07,0.0251308030894444,0.025655772445297258,1693.0,60205.0
407.58,0.027527453587432905,0.02650829055356256,1686.0,60921.0
408.1,0.028518934035738096,0.026954816704799964,1679.0,61503.0
408.62,0.029369002617039838,0.027277322543240255,1660.0,61902.0
409.13,0.029378712473912345,0.027215307390138558,1678.0,62290.0
409.65,0.02920338413805236,0.027168383957158846,1645.0,62527.0
410.16,0.028213216083604154,0.02713213707295205,1652.0,62772.0
410.68,0.02586768844301,0.027028979636470538,1648.0,62897.0
411.2,0.02543267538948783,0.02661250269448434,1713.0,62518.0
411.71,0.023511204043663664,0.02625939729624857,1712.0,60737.0
412.23,0.024661568759647288,0.025816892954640926,1678.0,56363.0
412.74,0.027164984745364936,0.02549653643755057,1623.0,51132.0
413.26,0.02748735967092296,0.02547855895514438,1598.0,46676.0
413.77,0.025204233197177867,0.0254361986376786,1664.0,43088.0
414.29,0.0258476584915546,0.025557107735156098,1714.0,40081.0
414.8,0.024778340721975933,0.025721078960375093,1683.0,37896.0
415.32,0.0250096509127006,0.025527409253418416,1652.0,36266.0
415.84,0.0256879136189481,0.025375277201731498,1649.0,34452.0
416.35,0.025009072214830046,0.025446092191555934,1658.0,33068.0
416.87,0.024720295018438653,0.025516418598684074,1646.0,31998.0
417.38,0.026301281011837197,0.025667506406745262,1642.0,30835.0
417.9,0.025228287675798173,0.025526549065911158,1664.0,30006.0
418.41,0.025966039154053776,0.025423488906871402,1666.0,29269.0
418.93,0.025912383095422264,0.02549295080724918,1620.0,28442.0
419.44,0.026550922562835973,0.025556342632772948,1646.0,27532.0
419.96,0.026289218802587788,0.02576484176780683,1687.0,26741.0
420.47,0.02360007750435962,0.026015001505974137,1714.0,25805.0
420.99,0.024657312028550572,0.026044620099628976,1691.0,24658.0
421.5,0.025703691218607785,0.025777165796681968,1701.0,23732.0
422.01,0.02535421327367636,0.02543083720013696,1659.0,22797.0
422.53,0.028386272362175977,0.025226123969008814,1647.0,21912.0
423.04,0.027729885057471263,0.025432149582798984,1669.0,20880.0
423.56,0.026262225090602196,0.02572227752492096,1655.0,20143.0
424.07,0.023237840065952184,0.02608077869594721,1684.0,19408.0
424.59,0.0230876365973859,0.026463049630091252,1748.0,18668.0
425.1,0.024242086491306287,0.026801335210655513,1680.0,17944.0
425.62,0.025660333642261352,0.026988009852525405,1682.0,17264.0
426.13,0.027558591449770346,0.02768066458717076,1707.0,16982.0
426.64,0.029288702928870293,0.0282530849338765,1709.0,16730.0
427.16,0.029176922615116768,0.029119203903245894,1685.0,16657.0
427.67,0.0317691281678186,0.030305845418511692,1679.0,16494.0
428.19,0.029596631476170136,0.031197212963219572,1673.0,16387.0
428.7,0.03318877243705578,0.03165759724591901,1636.0,16602.0
429.22,0.028962043533009536,0.032266553638038854,1676.0,16677.0
429.73,0.031748826291079814,0.03303740774910226,1662.0,17040.0
430.24,0.0361085016439643,0.03372028832287392,1637.0,17032.0
430.76,0.03457400908934016,0.034658118552065555,1672.0,17383.0
431.27,0.03216243427676474,0.03509947581760894,1639.0,17878.0
431.78,0.03537826685006878,0.03616796400338782,1666.0,18175.0
432.3,0.03688546372575073,0.03701320572759514,1668.0,18815.0
432.81,0.03859793390553528,0.037547672462981754,1601.0,19457.0
433.33,0.03897493376808641,0.03855355599310932,1691.0,19628.0
433.84,0.037602345092489636,0.0395630355019373,1652.0,19786.0
434.35,0.039646925390798365,0.04035573215982057,1662.0,20279.0
434.87,0.04020124353315297,0.04122666180668348,1668.0,21069.0
435.38,0.0414531689978304,0.04226389171384114,1678.0,21663.0
435.89,0.04463284439061589,0.043273544318660526,1642.0,22293.0
436.41,0.04225722936504454,0.044511351329192206,1640.0,22789.0
436.92,0.04330523342890154,0.04548333395080153,1649.0,23369.0
437.43,0.045594760194379885,0.04662574056897397,1680.0,23665.0
437.95,0.04897023297711174,0.047659400318045345,1652.0,24423.0
438.46,0.04907145981628027,0.04873560975770024,1656.0,25147.0
438.97,0.0499804151978065,0.05016518932224372,1702.0,25530.0
439.48,0.049366751606891565,0.051925463021259895,1677.0,26293.0
440.0,0.05162530971487741,0.053686997827307036,1655.0,27041.0
440.51,0.05178976648854403,0.054857830841695016,1709.0,27322.0
441.02,0.055394938787164935,0.0560131605062548,1697.0,28017.0
441.54,0.05655302501047925,0.05755932467051222,1720.0,28628.0
442.05,0.06090797041906327,0.05938888123439467,1730.0,29208.0
442.56,0.06321010825485136,0.06097685886286994,1709.0,29837.0
443.07,0.06067856312099159,0.06284069204599682,1704.0,30093.0
443.59,0.06062475646187816,0.06433242482199421,1684.0,30796.0
444.1,0.06544205684038061,0.06598825389754828,1611.0,31738.0
444.61,0.06766231724571609,0.0671818735124781,1689.0,31805.0
445.12,0.06750508599963011,0.06845888766520963,1682.0,32442.0
445.64,0.07042809831981284,0.07001057039679813,1658.0,32913.0
446.15,0.0703122665471388,0.07192583129977542,1643.0,33465.0
446.66,0.07311131576602002,0.07339484800260616,1655.0,33661.0
447.17,0.07284416656836144,0.07459916053218912,1699.0,33908.0
447.69,0.07598024978216672,0.07583961503154835,1658.0,34430.0
448.2,0.07619539043687651,0.07718341775307794,1659.0,34884.0
448.71,0.07977736549165121,0.07859409080239967,1672.0,35035.0
449.22,0.08013222386868803,0.0796448051742246,1655.0,35092.0
449.73,0.07970544254154557,0.08126226026398277,1650.0,35443.0
450.25,0.07990963099322232,0.08274871358803791,1667.0,35853.0
450.76,0.0838661255351087,0.08407004594166528,1673.0,35974.0
451.27,0.08441899704035627,0.08502857240978384,1667.0,36153.0
451.78,0.08361845948426938,0.0861999464323984,1697.0,35949.0
452.29,0.08901871746594307,0.08802794200368161,1672.0,36116.0
452.8,0.09084478302271799,0.08985510086962974,1656.0,36755.0
453.32,0.08940871397315038,0.09115485022295151,1727.0,37021.0
453.83,0.08936263017283681,0.09271213448105173,1726.0,36682.0
454.34,0.09184596409483349,0.09422884424213654,1699.0,36485.0
454.85,0.09798539825437778,0.09518441620200586,1624.0,36434.0
455.36,0.09818121965270347,0.09625618789973407,1625.0,36453.0
455.87,0.09686361906832636,0.09749500525582833,1649.0,36794.0
456.39,0.09999183962135844,0.09899497572168464,1632.0,36763.0
456.9,0.09878555709511777,0.1006416948892796,1637.0,36807.0
457.41,0.09857443706463632,0.10168388698242128,1677.0,37038.0
457.92,0.1015625,0.10261003827059513,1684.0,37120.0
458.43,0.10179688753409273,0.10378901623071751,1643.0,37398.0
458.94,0.1043623348314002,0.1048368209453499,1675.0,37159.0
459.45,0.10831315577078289,0.10624297802318663,1682.0,37170.0
459.96,0.10840731918579471,0.10766424251594836,1613.0,36944.0
460.47,0.107442732534442,0.10898555066818164,1709.0,36801.0
460.98,0.10865339866955022,0.1103705993034153,1717.0,36529.0
461.5,0.1104698867676823,0.11167508921632499,1659.0,36562.0
462.01,0.11284712787348514,0.11240478702568324,1667.0,36802.0
462.52,0.11278708199225355,0.11316361078608184,1671.0,36662.0
463.03,0.11477558152233264,0.11447034828053541,1634.0,36628.0
463.54,0.11564737388642947,0.11573701614625093,1628.0,36594.0
464.05,0.11740723396049696,0.1169994912264736,1691.0,36301.0
464.56,0.11561013386436553,0.11836340322877444,1683.0,36156.0
465.07,0.11599555678978062,0.11941571490300562,1696.0,36010.0
465.58,0.12051010747897756,0.12003209455021292,1654.0,35914.0
466.09,0.12132007732670533,0.12080416099564699,1658.0,36210.0
466.6,0.12309463756990899,0.12168772786410359,1633.0,36476.0
467.11,0.1264862478964937,0.12312079665721148,1652.0,36249.0
467.62,0.12331019873456532,0.1244036615497261,1689.0,35877.0
468.13,0.12093937799440582,0.12542578880227567,1679.0,36109.0
468.64,0.12336803834077012,0.12655616453585247,1672.0,36306.0
469.15,0.12624290264506302,0.12784441063825366,1711.0,36105.0
469.66,0.1299408217954444,0.12855245858351536,1665.0,35824.0
470.17,0.12882420571492667,0.12948153635763981,1623.0,35661.0
470.68,0.13073138000447326,0.13100649233639788,1626.0,35768.0
471.19,0.13262383466247332,0.13253459881622223,1659.0,35612.0
471.7,0.13597709859392101,0.13387617539862365,1667.0,35631.0
472.21,0.13356672734911076,0.13513519355729792,1674.0,35705.0
472.72,0.13260097647581004,0.13640817934823127,1704.0,36048.0
473.23,0.1361889377819863,0.1375552767484177,1715.0,35906.0
473.74,0.13864910313901346,0.13839229306901055,1650.0,35680.0
474.25,0.1396586684690774,0.13923968339791062,1652.0,35508.0
474.76,0.14253100338218716,0.1403709969330224,1688.0,35480.0
475.27,0.14155406362425993,0.14155142564649756,1674.0,35301.0
475.78,0.1422023540063377,0.1426606329005347,1675.0,35344.0
476.29,0.14099399786840186,0.14326883776610574,1644.0,35654.0
476.8,0.14445100188292162,0.14408337145016126,1640.0,35583.0
477.31,0.14487986270022885,0.14480547581728218,1620.0,34960.0
477.81,0.14440526361056163,0.14579306733958858,1692.0,34881.0
478.32,0.1472810103223574,0.14663145113131257,1690.0,34682.0
478.83,0.14473115179472396,0.14733081474339182,1626.0,34685.0
479.34,0.14780400530963236,0.14789360421672085,1665.0,34654.0
479.85,0.14975204705339637,0.14832832028469556,1680.0,34684.0
480.36,0.15142997884732404,0.14877135094105445,1659.0,34511.0
480.87,0.15058619192357794,0.14881680992640628,1682.0,34545.0
481.38,0.14798763398919418,0.14968401661316744,1745.0,34611.0
481.89,0.1500788966162118,0.15050207168065982,1683.0,34222.0
482.4,0.14922702337997595,0.1507994011895722,1655.0,34089.0
482.9,0.14883557017415053,0.1505332883189774,1670.0,34051.0
483.41,0.14773560017587573,0.15049287570467107,1651.0,34115.0
483.92,0.15340321866233575,0.15102922499851557,1654.0,33865.0
484.43,0.155984555984556,0.15110865029124243,1625.0,33670.0
484.94,0.15272534214252007,0.15123923392127323,1663.0,33904.0
485.45,0.14876885014137606,0.15186688553865832,1681.0,33952.0
485.95,0.15018206578051452,0.15256428406721637,1715.0,33779.0
486.46,0.1533511269276394,0.15281076107622327,1682.0,33720.0
486.97,0.1508731495434802,0.15245383052315592,1646.0,33843.0
487.48,0.15053285968028418,0.15229052142320929,1704.0,33780.0
487.99,0.15511208634800142,0.15226693895222235,1656.0,33724.0
488.5,0.15470958546145622,0.15228143145386197,1671.0,33676.0
489.0,0.1558679887524049,0.15161778060114756,1622.0,33785.0
489.51,0.15241525045388254,0.15105405764231986,1603.0,33599.0
490.02,0.15109225114305352,0.1503030282063579,1624.0,33463.0
490.53,0.14853302543150665,0.1493440031392854,1640.0,33777.0
491.04,0.15032699079691061,0.1482421791082597,1644.0,33793.0
491.54,0.14671461840049524,0.1465647522596605,1586.0,33923.0
492.05,0.1452359199552032,0.145204884019006,1671.0,33931.0
492.56,0.1430225653206651,0.14360019861615714,1694.0,33680.0
493.07,0.14552183567727608,0.14239163560911455,1635.0,33775.0
493.57,0.14369134515119916,0.14083774426335746,1641.0,33565.0
494.08,0.13909372026641295,0.13919868779785788,1667.0,33632.0
494.59,0.13881656804733727,0.13751092539613674,1675.0,33800.0
495.1,0.13504539711456529,0.13600013357282062,1653.0,34033.0
495.6,0.13644739536108105,0.13425489267119062,1602.0,34189.0
496.11,0.1347880773393395,0.13226437819764597,1635.0,34187.0
496.62,0.13032405374549924,0.13052862434665743,1687.0,34161.0
497.13,0.12835829593799172,0.12856253721963595,1661.0,34318.0
497.63,0.12791464708750394,0.1268900152263917,1623.0,34867.0
498.14,0.12806942666097595,0.1246003076165988,1648.0,35145.0
498.65,0.12378620041575306,0.12198227075579665,1661.0,35117.0
499.15,0.12173618175652763,0.11986098891394656,1589.0,35388.0
499.66,0.11915569677712211,0.11773974445834148,1623.0,35248.0
500.17,0.11832017718212277,0.11517677995731855,1643.0,35218.0
500.68,0.11355031926315194,0.11236627007666672,1661.0,35394.0
501.18,0.10860770873131813,0.11006527498402238,1715.0,35596.0
501.69,0.10911123532699832,0.1078147989543722,1664.0,35780.0
502.2,0.10714585138194115,0.10574131022036903,1666.0,35783.0
502.7,0.10228500207727462,0.10315070522962526,1677.0,36105.0
503.21,0.09996432785445765,0.10061487038946663,1676.0,36443.0
503.72,0.10077624948930955,0.09818976422535779,1643.0,36715.0
504.22,0.09923142146002571,0.09576125676219369,1672.0,36561.0
504.73,0.0984208094370906,0.09302114909485347,1629.0,36791.0
505.23,0.09241412727468504,0.09070988375547805,1627.0,37148.0
505.74,0.08819197086156566,0.08829764065242816,1625.0,37339.0
506.25,0.08435664709022958,0.08563240069264225,1663.0,37460.0
506.75,0.08482616069535721,0.08270122062413349,1693.0,37736.0
507.26,0.07974477470853902,0.07961558268019225,1686.0,38084.0
507.77,0.0791723486835204,0.07677002572540673,1684.0,38132.0
508.27,0.0758418968239588,0.07414680138408897,1657.0,38633.0
508.78,0.07412384989145043,0.07153738905299879,1684.0,38692.0
509.28,0.06991962077493817,0.06861256902117038,1699.0,38816.0
509.79,0.0675644299976782,0.0661229763153569,1650.0,38763.0
510.3,0.06395855772682976,0.0636102062210316,1621.0,38994.0
510.8,0.06195972744838808,0.06112343830600435,1635.0,39332.0
511.31,0.058262523779327835,0.05850775969216687,1651.0,39425.0
511.81,0.055577960377073146,0.05616849237154718,1653.0,39674.0
512.32,0.05484884765040407,0.05387154491713901,1631.0,40092.0
512.82,0.05404464774026749,0.051952144779367056,1673.0,40226.0
513.33,0.05097421767368628,0.05035462389713105,1628.0,40648.0
513.84,0.04796706375307559,0.04902296982049035,1671.0,41049.0
514.34,0.04652694756874131,0.04765025931036327,1714.0,40987.0
514.85,0.044594955453596485,0.04679407439708971,1701.0,41193.0
515.35,0.04476455634911028,0.04635148701314871,1665.0,41305.0
515.86,0.04598451862602806,0.04616323733705449,1662.0,41340.0
516.36,0.04494598301292077,0.04649383437994921,1657.0,41561.0
516.87,0.04185085527580242,0.04754340650786124,1683.0,41624.0
517.37,0.04628699851766844,0.04948677017434957,1662.0,41826.0
517.88,0.04961877390085746,0.051521931618173936,1644.0,42101.0
518.38,0.04909172091274411,0.05447717597171155,1661.0,42553.0
518.89,0.05127303418202279,0.058339072019131716,1674.0,42654.0
519.39,0.05702266884786165,0.06325305036440379,1647.0,42790.0
519.9,0.06402859211847976,0.06870865217588598,1664.0,42809.0
520.4,0.06511617078735392,0.07531345195398961,1698.0,42954.0
520.91,0.07553696216140417,0.08325182855311145,1700.0,42787.0
521.41,0.08356494348712247,0.09245171016460861,1691.0,43176.0
521.92,0.09099063872852313,0.10222674323988101,1726.0,43477.0
522.42,0.10084301663249032,0.11285015148250203,1656.0,43890.0
522.93,0.11566677168189388,0.12452115480130464,1676.0,44438.0
523.43,0.12847548690396238,0.13669391834318634,1691.0,44670.0
523.93,0.14327185029699432,0.14936070817473587,1640.0,44782.0
524.44,0.1547729996005858,0.16229591018780853,1635.0,45066.0
524.94,0.17026267454469007,0.17551408764942195,1640.0,45189.0
525.45,0.18182620397538,0.18860337626143953,1705.0,45329.0
525.95,0.19726459758022094,0.20126519827255637,1653.0,45624.0
526.46,0.21023284180261811,0.21305018237387782,1622.0,45911.0
526.96,0.2203426588592496,0.2248765045423575,1650.0,46110.0
527.46,0.23302479124862452,0.2361928284843489,1691.0,46347.0
527.97,0.2465596578020696,0.24681319258542797,1706.0,46289.0
528.47,0.2550937070151307,0.25635871934646476,1656.0,46528.0
528.98,0.26112169131020907,0.26492253249021863,1616.0,46733.0
529.48,0.2730362212853824,0.27284667244445326,1691.0,46492.0
529.98,0.28342591396460404,0.2799323845138135,1634.0,46446.0
530.49,0.28802984498617096,0.2860340906912785,1671.0,46641.0
530.99,0.29271986519058896,0.2912942757471747,1651.0,46881.0
531.5,0.2958709732401568,0.29645192104740037,1711.0,46936.0
532.0,0.29958405840159585,0.30116929071761284,1734.0,47122.0
532.5,0.30388191194222663,0.30485949247367033,1713.0,47219.0
533.01,0.30757671957671956,0.3085122549910463,1707.0,47250.0
533.51,0.3076955575740932,0.3120182513987636,1713.0,47339.0
534.01,0.3126981443124657,0.3153382243863984,1689.0,47314.0
534.52,0.3202099179875069,0.3187218619222514,1623.0,47066.0
535.02,0.32032793152517897,0.32142078782557376,1625.0,47083.0
535.52,0.32455747015993,0.32341299068557106,1650.0,46833.0
536.03,0.3277798292677629,0.325897149263964,1675.0,46037.0
536.53,0.32907070311650466,0.32829657533352447,1700.0,45981.0
537.03,0.3334204337601254,0.3296586358477872,1683.0,45924.0
537.54,0.33087117097545077,0.3313382289793841,1686.0,46030.0
538.04,0.3274987481766921,0.332589164996072,1648.0,45933.0
538.54,0.33253714335802254,0.33374987802960754,1695.0,45634.0
539.04,0.3366924050080705,0.33517270001808663,1738.0,45846.0
539.55,0.333830523130134,0.3361630510082713,1708.0,46260.0
540.05,0.33712386284114765,0.33725710910115053,1655.0,45728.0
540.55,0.33706683032680884,0.3389602445624828,1633.0,45623.0
541.06,0.3393869596031184,0.3401790242270497,1710.0,45152.0
541.56,0.343298923001296,0.3408400133684282,1715.0,44754.0
542.06,0.34332394366197183,0.3419113480397262,1662.0,44375.0
542.56,0.34181175190424373,0.34263505550195317,1675.0,44112.0
543.07,0.34453010279001467,0.34326690075069544,1681.0,43584.0
543.57,0.3447249400036921,0.34416335394115194,1696.0,43336.0
544.07,0.34330229642185434,0.34431877508955366,1670.0,43067.0
544.57,0.34454386984311447,0.3449594167239395,1642.0,43025.0
545.07,0.3443609374634169,0.34550927939652204,1659.0,42711.0
545.58,0.3433852828142315,0.34584381291656313,1686.0,42413.0
546.08,0.3483514915076835,0.3463783063388332,1641.0,42038.0
546.58,0.34485313448531346,0.3467347425158927,1630.0,41841.0
547.08,0.3497303600058301,0.3475426124999776,1637.0,41166.0
547.59,0.34731037863006986,0.34786575324278085,1631.0,40805.0
548.09,0.3478754379904259,0.3485267091251873,1664.0,40526.0
548.59,0.3500698742263925,0.34866482480981426,1623.0,40072.0
549.09,0.3468666581924495,0.3492566461288202,1586.0,39335.0
549.59,0.3526225696839631,0.34922009650676233,1604.0,39141.0
550.09,0.34759234489144974,0.34955347088208066,1709.0,38876.0
550.6,0.3499948416382957,0.349839024132183,1676.0,38772.0
551.1,0.3497326483539526,0.35010202801767065,1703.0,38152.0
551.6,0.35077134767537244,0.35090091497948106,1782.0,37791.0
552.1,0.34936486378525206,0.35057257871593056,1729.0,37551.0
552.6,0.3506441223832528,0.3510880390103594,1654.0,37260.0
553.1,0.3507309704914495,0.35157613727953113,1663.0,37074.0
553.6,0.352699913081269,0.3518073746184814,1711.0,36816.0
554.11,0.35485552781055346,0.3516332710246261,1700.0,36443.0
554.61,0.34933920704845817,0.35129827613992515,1721.0,36320.0
555.11,0.35274694783573807,0.35141686966834107,1649.0,36040.0
555.61,0.35487582433001263,0.35159917566090854,1614.0,35635.0
556.11,0.35204502174345564,0.35108598762903764,1651.0,35183.0
556.61,0.3490303117368194,0.3506581798176215,1666.0,34805.0
557.11,0.3460149149382428,0.3513577908946027,1679.0,34328.0
557.61,0.35183005766741204,0.35180411975464027,1618.0,33988.0
558.11,0.3525540304171237,0.3517501354709708,1622.0,33731.0
558.62,0.3475680327625605,0.3519568725969602,1652.0,33697.0
559.12,0.35057744969639243,0.35219663627830333,1686.0,33596.0
559.62,0.35633531781826927,0.35267589012609396,1690.0,33258.0
560.12,0.35721023643611355,0.3526327281822691,1718.0,32863.0
560.62,0.35433598149331874,0.35285045875919674,1650.0,32853.0
561.12,0.35411239300334946,0.3537864800879871,1691.0,32244.0
561.62,0.3514279485502507,0.35427275976566414,1714.0,32109.0
562.12,0.35080745341614905,0.3538337093129819,1643.0,32200.0
562.62,0.35139843822916345,0.3533042660015528,1649.0,32143.0
563.12,0.3547313361864004,0.35357729879662814,1668.0,31545.0
563.62,0.3569282460504636,0.3540845499611523,1685.0,30953.0
564.12,0.35544024647316363,0.3550907776070494,1682.0,30835.0
564.62,0.3519448132914467,0.3562368919086522,1665.0,30877.0
565.12,0.3519158033218221,0.35734034453539987,1636.0,30405.0
565.62,0.35706630944407236,0.35745417038537847,1654.0,29860.0
566.12,0.35918490464859065,0.3574981842730221,1635.0,29837.0
566.62,0.3614902250092217,0.3581060653584539,1592.0,29821.0
567.12,0.36226859643217774,0.35899873633801405,1694.0,29710.0
567.62,0.36243296449663975,0.36005441658954496,1689.0,29462.0
568.12,0.3558695946861868,0.3600077718234377,1701.0,29508.0
568.62,0.3573683849268996,0.3598719733314151,1682.0,29138.0
569.12,0.36151905732748196,0.3600336236273202,1647.0,28939.0
569.62,0.3608715230870484,0.35996290957931965,1668.0,28869.0
570.12,0.3624726058371308,0.35998915337991266,1671.0,28747.0
570.62,0.3565998617829993,0.35999278943431234,1743.0,28940.0
571.12,0.35782691972836494,0.3599646791917286,1682.0,28715.0
571.62,0.3631067279682729,0.3588912515883179,1657.0,28493.0
572.12,0.3615614559521716,0.35859251814726745,1687.0,28435.0
572.62,0.36269540250256993,0.3584857599748407,1672.0,28211.0
573.12,0.3559059552301844,0.35868046849700164,1673.0,28412.0
573.61,0.357087282501061,0.3588926558218974,1670.0,28276.0
574.11,0.35078478129337654,0.3586727052799145,1695.0,28097.0
574.61,0.35788418867654426,0.3590239126258738,1626.0,27942.0
575.11,0.36140502411286257,0.3589938408832069,1640.0,27786.0
575.61,0.3585469470046083,0.3591326400980071,1664.0,27776.0
576.11,0.35994879297732263,0.35923479817851467,1659.0,27340.0
576.61,0.36090722254844393,0.36041724201362413,1698.0,27248.0
577.11,0.3650735294117647,0.36019616544564764,1676.0,27200.0
577.61,0.362394685075901,0.3598840255511981,1717.0,26943.0
578.11,0.3572939473781868,0.3601934679184888,1709.0,26947.0
578.6,0.3581088633061361,0.36048019849847224,1678.0,26841.0
579.1,0.36260921964447124,0.36022568075038003,1681.0,26552.0
579.6,0.3556734229967797,0.35996686144457435,1650.0,26395.0
580.1,0.35828362516836637,0.35980352286321804,1688.0,25985.0
580.6,0.36164137067751523,0.36019887545430496,1694.0,25564.0
581.1,0.36281609877715776,0.3613089299239607,1708.0,25269.0
581.59,0.35836204506752206,0.36115888467877777,1640.0,25251.0
582.09,0.3624853363537074,0.3612440157936604,1645.0,24721.0
582.59,0.3607612992623385,0.3610706025597898,1699.0,24537.0
583.09,0.3612474732890557,0.3610322370279539,1705.0,24241.0
583.59,0.3692094080026928,0.36086060029421374,1672.0,23767.0
584.09,0.36110876719264196,0.3614010137799992,1668.0,23702.0
584.58,0.3565247341456064,0.3610420220795104,1645.0,23227.0
585.08,0.3565494928296607,0.36139264194075177,1648.0,22872.0
585.58,0.3612577153591556,0.3614874010526521,1692.0,22358.0
586.08,0.36109973143975604,0.36035061183769684,1638.0,21969.0
586.58,0.3637661799253766,0.3596324554249461,1680.0,21709.0
587.07,0.35889541934881986,0.3590355483975954,1705.0,21438.0
587.57,0.36426749787475204,0.3597547563049282,1701.0,21174.0
588.07,0.36219506440805926,0.35969237945203925,1655.0,21193.0
588.57,0.3578415158531399,0.35922876971078777,1591.0,21163.0
589.06,0.3539272030651341,0.3586498371904552,1661.0,20880.0
589.56,0.3505556638720998,0.3589759456088838,1703.0,20516.0
590.06,0.36374157190298884,0.35919049731707897,1679.0,19874.0
590.56,0.36063394683026584,0.35942633758966375,1666.0,19560.0
591.05,0.35646363402724235,0.35963685267101647,1666.0,19455.0
591.55,0.35797685472205,0.35987823921825374,1633.0,19356.0
592.05,0.3621565035331065,0.36058225375191505,1663.0,19105.0
592.54,0.36641301495670425,0.3603956945020683,1624.0,19055.0
593.04,0.36455346713390674,0.36027362011244035,1707.0,18834.0
593.54,0.3599466666666667,0.3602912669476313,1709.0,18750.0
594.04,0.35634106853750674,0.3601314415577308,1687.0,18530.0
594.53,0.3575958092087124,0.36008789802934593,1656.0,18135.0
595.03,0.36187597940452204,0.3588117968432178,1649.0,17868.0
595.53,0.3594132029339853,0.3578946269550912,1655.0,17587.0
596.02,0.3566401023791519,0.35806864364771535,1743.0,17191.0
596.52,0.3563786008230453,0.35895789231354247,1715.0,17010.0
597.02,0.36172106824925815,0.35873441117679217,1665.0,16850.0
597.51,0.35365200309542233,0.35728271296776337,1693.0,16799.0
598.01,0.3553817682526416,0.3576968845217041,1663.0,16751.0
598.51,0.36168683359290765,0.3586366020477376,1672.0,16694.0
599.0,0.3652335551957786,0.3594328974711601,1673.0,16677.0
599.5,0.35536099784120895,0.3600340464601877,1704.0,16676.0
600.0,0.34735899731423453,0.3598115835975304,1755.0,16755.0
600.49,0.3635549184733919,0.3600773517812321,1619.0,16743.0
600.99,0.36603727763948757,0.3600875302105593,1630.0,16471.0
601.48,0.3643415550572693,0.3598159410593281,1639.0,16501.0
601.98,0.36773255813953487,0.36031286096001935,1645.0,16512.0
602.48,0.35142737446884914,0.36239994294768296,1653.0,16709.0
602.97,0.3580394500896593,0.361897196757011,1683.0,16730.0
603.47,0.3617886178861789,0.36151136437221576,1717.0,16728.0
603.96,0.3625176636834668,0.3612764526606694,1660.0,16984.0
604.46,0.360330196848121,0.36195603219423045,1717.0,17323.0
604.96,0.3682298171908709,0.3638449484941156,1613.0,17614.0
605.45,0.35852745656667223,0.36478981915556,1665.0,17901.0
605.95,0.3621789537915349,0.36494302970979337,1673.0,18027.0
606.44,0.361992437941805,0.3651133281187746,1650.0,18249.0
606.94,0.3745283534751463,0.36666751194203495,1639.0,18287.0
607.43,0.37031653746770027,0.3672218542846927,1639.0,18576.0
607.93,0.3674881567041039,0.36846596128162284,1651.0,18787.0
608.42,0.3633207234285122,0.36922398454393535,1639.0,19297.0
608.92,0.36422064777327934,0.3701005819881333,1605.0,19760.0
609.42,0.37587203508072553,0.3697511693630493,1575.0,20068.0
609.91,0.3737732406174483,0.3698482513546505,1676.0,20277.0
610.41,0.3709685265359732,0.3701423899910826,1702.0,20557.0
610.9,0.3697591864146599,0.37191565681869676,1651.0,20846.0
611.4,0.37075841238378404,0.37347624138734814,1650.0,21189.0
611.89,0.3710342272243064,0.37401723396462205,1646.0,21591.0
612.39,0.3712873573837129,0.37472605092406513,1700.0,21649.0
612.88,0.3704295430684256,0.3759308251965245,1688.0,21907.0
613.38,0.38105339170465313,0.3771272729410355,1681.0,22157.0
613.87,0.37982649345979236,0.37800698347377426,1690.0,22247.0
614.36,0.381281960853465,0.37899458849754375,1659.0,22684.0
614.86,0.38086141021187914,0.37997334393991533,1715.0,23032.0
615.35,0.3830162692605664,0.3811591354069658,1650.0,23234.0
615.85,0.38172366385976975,0.38122083064035756,1645.0,23276.0
616.34,0.3795555177111717,0.3812709681796242,1664.0,23488.0
616.84,0.3809102774620016,0.38127460064512425,1664.0,23751.0
617.33,0.3810749118074289,0.381405350142449,1622.0,24095.0
617.83,0.38228745773892964,0.38103557741607536,1653.0,24254.0
618.32,0.38167034403857153,0.381013317572597,1690.0,24474.0
618.82,0.380327868852459,0.3814545218838254,1665.0,24705.0
619.31,0.3813182855084644,0.3818163566142898,1662.0,24987.0
619.8,0.38216890518512614,0.3828038495899732,1593.0,25091.0
620.3,0.3793185419968304,0.38324520611590335,1622.0,25240.0
620.79,0.3815010654249862,0.3834578242231666,1648.0,25342.0
621.29,0.383967560823456,0.38469451293658696,1702.0,25648.0
621.78,0.3845286247666459,0.38586236845374117,1691.0,25712.0
622.27,0.3909498415642631,0.3867492710257139,1704.0,25878.0
622.77,0.3867010229982309,0.38803266429908295,1658.0,26002.0
623.26,0.38379652511120405,0.38891648572947174,1707.0,26303.0
623.75,0.39269475598666265,0.3897584531933253,1678.0,26392.0
624.25,0.392996840680006,0.39101790627979555,1643.0,26588.0
624.74,0.3910379309048532,0.3913553675721893,1664.0,26601.0
625.24,0.39215247473052106,0.3919499983224309,1668.0,26811.0
625.73,0.39033927972887417,0.3930703823583465,1650.0,26851.0
626.22,0.3923872354619918,0.3927787639807068,1658.0,26981.0
626.72,0.3971231556313487,0.3928994013114801,1659.0,26974.0
627.21,0.39432445448820064,0.3931223913359875,1673.0,26993.0
627.7,0.3926473305006466,0.39280274162339207,1618.0,27065.0
628.2,0.3950003654703603,0.3928622771228501,1616.0,27362.0
628.69,0.3897785722102652,0.39269462199518534,1703.0,27413.0
629.18,0.39420321398773894,0.3916469948593502,1648.0,27567.0
629.67,0.3932678311499272,0.39113535598932925,1619.0,27480.0
630.17,0.3889559776045669,0.39159274894472973,1719.0,27327.0
630.66,0.3909346347234546,0.3920810528563023,1694.0,27048.0
631.15,0.39071068418534466,0.39276537893211655,1665.0,27171.0
631.65,0.38664688427299704,0.39281402895746476,1670.0,26960.0
632.14,0.38920806578799144,0.3924912982115494,1686.0,26631.0
632.63,0.39722126005465114,0.3926486978446635,1677.0,25983.0
633.12,0.3998834045860863,0.3927064813554234,1702.0,25730.0
633.62,0.39662183296840786,0.39275514829270636,1695.0,25576.0
634.11,0.3946897142412209,0.3929562459058502,1680.0,25686.0
634.6,0.3900405236907731,0.3927353354848911,1704.0,25664.0
635.09,0.3905299739357081,0.39203524515623606,1661.0,25322.0
635.59,0.3915124698310539,0.39152237287829006,1678.0,24860.0
636.08,0.3911973535581733,0.39072513517564605,1653.0,24788.0
636.57,0.38865786040443573,0.38968593359450093,1672.0,24528.0
637.06,0.38699896157840086,0.38968551067582113,1678.0,24075.0
637.56,0.39022035676810074,0.38943376144035036,1633.0,23825.0
638.05,0.39475468180662654,0.3891837765210906,1648.0,23602.0
638.54,0.38864945594196715,0.3889736261238568,1659.0,23435.0
639.03,0.38429769842976985,0.3881351985322156,1668.0,23245.0
639.52,0.3900362945039751,0.3880182947244912,1668.0,23144.0
640.02,0.38801248158100027,0.3882313353594304,1632.0,23074.0
640.51,0.3890126206384558,0.3882525498600764,1622.0,22899.0
641.0,0.3890958495858351,0.38912145332422104,1629.0,22817.0
641.49,0.3802735844880251,0.3895810869640155,1712.0,22589.0
641.98,0.38582992350115636,0.38869365057574057,1682.0,22484.0
642.47,0.392350763117493,0.38900397955886357,1675.0,22146.0
642.97,0.39496682681308626,0.3897654101382282,1658.0,21855.0
643.46,0.3973384905834139,0.38986121469458834,1634.0,21717.0
643.95,0.38889403482771395,0.3910237170807758,1660.0,21592.0
644.44,0.3811619306212256,0.39112740203421026,1699.0,21361.0
644.93,0.39111577141223014,0.3905174320415684,1693.0,20981.0
645.42,0.39662692643210234,0.3897112859258344,1724.0,20634.0
645.91,0.39005389514943656,0.3888705802789394,1689.0,20410.0
646.4,0.3918986083499006,0.3887030788882616,1642.0,20120.0
646.9,0.3868667730355006,0.3884363817205367,1657.0,20056.0
647.39,0.3862510631910742,0.3878636891040584,1653.0,19987.0
647.88,0.386905365655746,0.38738075678042205,1666.0,19718.0
648.37,0.3889314341144637,0.387238819999117,1704.0,19587.0
648.86,0.3872190209209365,0.386452598087612,1717.0,19263.0
649.35,0.3784949589439767,0.3862534808015216,1641.0,19242.0
649.84,0.385388845247447,0.3860337271448062,1650.0,19095.0
650.33,0.39179760319573903,0.38656089515977715,1665.0,18775.0
650.82,0.38863452733638565,0.38723559963078535,1624.0,18565.0
651.31,0.38403638923485134,0.38751545913587315,1661.0,18467.0
651.8,0.38487560017459627,0.38855452299027576,1615.0,18328.0
652.29,0.3840535266239197,0.38906112600484877,1678.0,17935.0
652.78,0.3921770458054555,0.388592422496515,1714.0,17487.0
653.27,0.39567847882454626,0.38841823946375476,1626.0,17355.0
653.76,0.39001761597181445,0.3890653084551951,1658.0,17030.0
654.25,0.38888559748800283,0.38782376969960874,1650.0,16879.0
654.75,0.39045487539317686,0.388414974476972,1672.0,16532.0
655.24,0.38711056811240074,0.38782167560165626,1630.0,16370.0
655.73,0.38689269700878326,0.3862873643045675,1667.0,16281.0
656.22,0.39050707914925464,0.386013926406808,1647.0,16033.0
656.71,0.3724602126187331,0.385145014045946,1677.0,15897.0
657.2,0.389965574397552,0.38471858662739494,1652.0,15686.0
657.69,0.3862440570522979,0.384093871312118,1675.0,15775.0
658.17,0.3803353658536585,0.38414497012045246,1686.0,15744.0
658.66,0.3872832369942196,0.38382938722224047,1610.0,15570.0
659.15,0.38019647387938327,0.38486280381000554,1644.0,15371.0
659.64,0.3861906012076661,0.38369644155612526,1683.0,15236.0
660.13,0.38086341495963166,0.382816189908667,1678.0,14987.0
660.62,0.3874036850921273,0.38203331589827677,1648.0,14925.0
661.11,0.3873512501671346,0.3804047768363279,1638.0,14958.0
661.6,0.3827943784963842,0.38193649580817324,1657.0,14658.0
662.09,0.3783019518587489,0.3823997729062055,1667.0,14499.0
662.58,0.3774415405777166,0.3819321585061962,1655.0,14540.0
663.07,0.3725066257497559,0.3806682636851563,1625.0,14338.0
663.56,0.3709978463747308,0.37920767245016096,1654.0,13930.0
664.05,0.3955136635978372,0.3789376329519593,1626.0,13686.0
664.54,0.39082337218798724,0.37929567306020207,1656.0,13469.0
665.03,0.3761872709595393,0.37868144994933095,1667.0,13371.0
665.51,0.3747647368817285,0.37774723908873087,1655.0,13283.0
666.0,0.3727453378171813,0.3782754135043609,1693.0,13084.0
666.49,0.38009398351436713,0.3771151683370593,1679.0,12981.0
666.98,0.38188235294117645,0.3763913171161623,1665.0,12750.0
667.47,0.37129930946900547,0.37569629463057147,1709.0,12599.0
667.96,0.3631645171437559,0.3762913915189393,1683.0,12716.0
668.45,0.37627959053103005,0.37653758742213,1662.0,12504.0
668.94,0.38391121192482175,0.37656453435085485,1677.0,12344.0
669.42,0.38358485997901703,0.3769114132316618,1681.0,12391.0
669.91,0.3692370461036312,0.37785404267960065,1693.0,12255.0
670.4,0.38071570576540753,0.3790714781536816,1718.0,12072.0
670.89,0.3752072968490879,0.378903920367738,1717.0,12060.0
671.38,0.3803634528016153,0.37780331422307545,1651.0,11886.0
671.87,0.385351141749246,0.37637734356259706,1680.0,11605.0
672.35,0.3807256039483938,0.3769458466287857,1670.0,11549.0
672.84,0.37533887188456494,0.3769557240160458,1695.0,11435.0
673.33,0.3746040126715945,0.37760968433843095,1743.0,11364.0
673.82,0.372905150478196,0.3772388792902541,1653.0,11397.0
674.31,0.3693251533742331,0.37653628665897887,1682.0,11410.0
674.79,0.37492207676551786,0.37618061258252383,1710.0,11229.0
675.28,0.3808144796380091,0.3762765648652666,1643.0,11050.0
675.77,0.3817469000729395,0.37631024447697825,1613.0,10968.0
676.26,0.37665540231984657,0.3759182274679992,1675.0,10949.0
676.75,0.37832521543649306,0.37579905696807936,1646.0,10676.0
677.23,0.37716886318384374,0.3754940711291302,1629.0,10547.0
677.72,0.37629839471199245,0.37348480786136723,1687.0,10590.0
678.21,0.37494080878871106,0.3720296727685592,1652.0,10559.0
678.7,0.3689849803884052,0.3719110270759659,1673.0,10453.0
679.18,0.368133448375036,0.37264011314733514,1657.0,10431.0
679.67,0.37187221837602613,0.37271256639149053,1669.0,10111.0
680.16,0.36072184696037907,0.3724472148689284,1656.0,9919.0
680.64,0.36719554914485886,0.3719055149424382,1699.0,9706.0
681.13,0.3754689453939141,0.37264316486003035,1674.0,9596.0
681.62,0.38561607615018506,0.37182452668331195,1639.0,9455.0
682.11,0.3778933956253982,0.37173796130085157,1668.0,9418.0
682.59,0.3736448794863699,0.37320153018017116,1640.0,9501.0
683.08,0.36952380952380953,0.37336916111038265,1651.0,9450.0
683.57,0.37636147956432653,0.3730437906198888,1646.0,9273.0
684.05,0.3599470666078518,0.37274175649718855,1734.0,9068.0
684.54,0.37100656455142234,0.37208481194551957,1696.0,9140.0
685.03,0.37535753575357533,0.3729396131018959,1648.0,9090.0
685.51,0.36887185844697395,0.37242108767605975,1695.0,8873.0
686.0,0.3722152404889752,0.3718009438497252,1695.0,8753.0
686.49,0.3825957349231828,0.37316141098039024,1669.0,8722.0
686.97,0.3713239501087081,0.3735471258207183,1659.0,8739.0
687.46,0.38219289105013315,0.3726664934724761,1661.0,8637.0
687.95,0.3643385552654482,0.3716553505360028,1657.0,9192.0
688.43,0.3701600413009809,0.3702092882557566,1623.0,9685.0
688.92,0.3735517379145026,0.3686454966126075,1673.0,10012.0
689.4,0.37486371295470317,0.36798802306203354,1664.0,10089.0
689.89,0.3665512122711529,0.3669901554006392,1683.0,10105.0
690.38,0.35876042908224076,0.36796876686984686,1631.0,10068.0
690.86,0.35775461768651323,0.367157817919528,1683.0,9691.0
691.35,0.3669578184916915,0.3666408430395077,1701.0,9388.0
691.83,0.3647492146029683,0.3662420712889749,1679.0,9231.0
692.32,0.37221421443619024,0.36503876122963785,1691.0,9019.0
692.81,0.37412466995752497,0.3644663402414352,1636.0,8711.0
693.29,0.36205055179779283,0.36317458912987943,1672.0,8427.0
693.78,0.36838198911429987,0.3627078846081415,1662.0,8084.0
694.26,0.3708759954493743,0.36055481838326287,1688.0,7911.0
694.75,0.35451811167778213,0.35792040692083865,1665.0,7647.0
695.23,0.35303621920021544,0.3556074715410112,1699.0,7427.0
695.72,0.3448371065709553,0.353270509052854,1707.0,7244.0
696.2,0.3622907732743118,0.35065650073397137,1621.0,7229.0
696.69,0.3432185523541813,0.34927655061610113,1663.0,7115.0
697.17,0.3458700998119485,0.34900093365349133,1671.0,6913.0
697.66,0.35099531615925056,0.3474871950019523,1705.0,6832.0
698.15,0.33868092691622104,0.3461859410328542,1701.0,6732.0
698.63,0.34224190592547343,0.3434121030121491,1694.0,6548.0
699.12,0.35707649427067206,0.3428789116172083,1658.0,6458.0
699.6,0.35176194205168365,0.3427409727442773,1704.0,6385.0
700.09,0.3378988326848249,0.3426430299430965,1696.0,6425.0
700.57,0.331824566879975,0.3434684882196293,1658.0,6407.0
701.05,0.3345523930672603,0.3442153958929779,1665.0,6289.0
701.54,0.3378866384047731,0.34381834129207645,1716.0,6369.0
702.02,0.34449071108263934,0.3429980764947919,1667.0,6244.0
702.51,0.350015888147442,0.3452676727802128,1665.0,6294.0
702.99,0.34693550968154907,0.3494311556498719,1678.0,6249.0
703.48,0.34971098265895956,0.3516246056067959,1658.0,6228.0
703.96,0.3531059482616576,0.35265150518218513,1673.0,6069.0
704.45,0.34355929407883884,0.3532961894498029,1659.0,6063.0
704.93,0.36059479553903345,0.35333047354247243,1682.0,5918.0
705.42,0.37345939557656593,0.3546457093265987,1689.0,5923.0
705.9,0.35648689263650024,0.35655674033826934,1660.0,5989.0
706.38,0.348155634158666,0.35675766131285336,1625.0,5937.0
706.87,0.35093755375881647,0.3567520918638313,1639.0,5813.0
707.35,0.35035872907413734,0.3553413620973068,1674.0,5854.0
707.84,0.36008786752281174,0.3522791971492904,1661.0,5918.0
708.32,0.3688212927756654,0.3519913874742199,1657.0,5786.0
708.8,0.35511515800749865,0.3517421957397692,1696.0,5601.0
709.29,0.3435035995886184,0.35269474490529457,1648.0,5834.0
709.77,0.3464874978737881,0.3524581420708735,1647.0,5879.0
710.25,0.3428377460964019,0.35091199412905727,1617.0,5892.0
710.74,0.35360879588579536,0.3472554259013196,1650.0,5639.0
711.22,0.3456637168141593,0.34462251824608175,1722.0,5650.0
711.71,0.3604630454140695,0.34359184719430136,1638.0,5615.0
712.19,0.347992700729927,0.3434896995529356,1621.0,5480.0
712.67,0.34462638810464896,0.3440205837470022,1657.0,5313.0
713.16,0.33225561049828833,0.3428917483573177,1673.0,5258.0
713.64,0.3287860814551206,0.3393837790030443,1682.0,5058.0
714.12,0.3331968890708146,0.33483299479244366,1664.0,4886.0
714.61,0.34546602146013045,0.3336670738430891,1641.0,4753.0
715.09,0.3481465880370682,0.3321936189067638,1623.0,4748.0
715.57,0.3423204419889503,0.33044225933113647,1674.0,4525.0
716.05,0.31058402327142537,0.3281142728552514,1679.0,4469.0
716.54,0.3149552033080634,0.3271513718111048,1668.0,4353.0
717.02,0.33633349123638084,0.32572374072618504,1641.0,4222.0
717.5,0.32989183874139627,0.32299944664757346,1695.0,4068.0
717.99,0.31474201474201474,0.3206370517168363,1684.0,4070.0
718.47,0.30550621669627,0.3203763701874146,1730.0,3941.0
718.95,0.32356787862934866,0.3185159293151133,1715.0,3823.0
719.43,0.3311897106109325,0.3165803526177245,1637.0,3732.0
719.92,0.32090364725095266,0.3156839082188747,1633.0,3674.0
720.4,0.3186964926815797,0.3170179466719679,1654.0,3621.0
720.88,0.30797720797720796,0.3173769882066217,1663.0,3510.0
721.36,0.29635079458505004,0.3155766193676222,1722.0,3398.0
721.85,0.3169777242624925,0.3124411193809091,1680.0,3322.0
722.33,0.3209273947528981,0.3123642910348325,1649.0,3278.0
722.81,0.3280823992729476,0.31314280894721574,1615.0,3301.0
723.29,0.3090966320428077,0.31450248299345696,1645.0,3177.0
723.77,0.30556419023935344,0.31571144660546263,1660.0,3217.0
724.26,0.29983471074380164,0.31629374599249876,1702.0,3025.0
724.74,0.32013536379018614,0.3170639846085569,1683.0,2955.0
725.22,0.3264816718054128,0.315521431307293,1649.0,2919.0
725.7,0.32157394843962006,0.3153754568638191,1638.0,2948.0
726.18,0.30844043070510596,0.3172770976502412,1670.0,2879.0
726.67,0.3228007181328546,0.3222578719653981,1658.0,2785.0
727.15,0.3286297809134794,0.3242994536966158,1679.0,2693.0
727.63,0.31265686626030836,0.3239913739217161,1731.0,2789.0
728.11,0.3076368876080692,0.32507085381938283,1660.0,2776.0
728.59,0.32458059810357404,0.3247394226284492,1679.0,2742.0
729.07,0.34964245389537074,0.32457401637395056,1644.0,2657.0
729.56,0.3405511811023622,0.3254872920331384,1622.0,2540.0
730.04,0.3234008740564164,0.3286183334234675,1637.0,2517.0
730.52,0.33236874741628775,0.3285695241306572,1669.0,2419.0
731.0,0.3051261187957689,0.32657196284163487,1666.0,2458.0
731.48,0.3211466555878687,0.3242424479910199,1690.0,2407.0
731.96,0.3377625375053579,0.3223608693996841,1672.0,2333.0
732.44,0.3439672801635992,0.32138254265429,1613.0,2445.0
732.92,0.30714879467996675,0.32072073615651936,1699.0,2406.0
733.4,0.3046049852133502,0.32118590205472014,1692.0,2367.0
733.88,0.3263473053892216,0.31882841088886926,1650.0,2338.0
734.37,0.32173539518900346,0.31610545130534984,1662.0,2328.0
734.85,0.31361760660247595,0.3132578964830718,1698.0,2181.0
735.33,0.3257506824385805,0.31723421281008163,1667.0,2198.0
735.81,0.30977777777777776,0.32017725262067587,1680.0,2250.0
736.29,0.2975717439293598,0.32030567997649056,1650.0,2265.0
736.77,0.31053294167016365,0.3174191440676985,1648.0,2383.0
737.25,0.3154917319408181,0.32060367543877283,1715.0,2298.0
737.73,0.3469119579500657,0.319328210369518,1660.0,2283.0
738.21,0.33403538331929233,0.3185988495425439,1637.0,2374.0
738.69,0.32763157894736844,0.3249777167178649,1622.0,2280.0
739.17,0.29287003610108303,0.3271763756758486,1669.0,2216.0
739.65,0.34546292031321973,0.3252813225224585,1655.0,2171.0
740.13,0.31299603174603174,0.3242514421080837,1696.0,2016.0
740.61,0.302484169508037,0.3236892321894386,1685.0,2053.0
741.09,0.36136041568256966,0.3249812989833861,1647.0,2117.0
741.57,0.33251953125,0.3331665791870251,1669.0,2048.0
742.05,0.2965412004069176,0.3373316822568746,1695.0,1966.0
742.53,0.33661315380631796,0.3398138429088782,1655.0,1931.0
743.01,0.3284132841328413,0.3441951542478987,1672.0,1897.0
743.49,0.34055224688684355,0.337727708155707,1673.0,1847.0
743.97,0.37472283813747226,0.33841641093908803,1670.0,1804.0
744.45,0.3871139510117146,0.3429136201417501,1660.0,1878.0
744.93,0.33781763826606875,0.344388859382967,1645.0,2007.0
745.41,0.34629728289824185,0.3474819246078539,1669.0,1877.0
745.89,0.2966859547606523,0.3467431299394535,1668.0,1901.0
746.37,0.3394065590838105,0.34260417945903965,1648.0,1921.0
746.85,0.34151329243353784,0.3371380274868322,1610.0,1956.0
747.33,0.35136554621848737,0.33814542028673134,1654.0,1904.0
747.8,0.35934393638170975,0.3355774978877811,1619.0,2012.0
748.28,0.33316430020283977,0.3421632839840744,1655.0,1972.0
748.76,0.3333333333333333,0.3395539594070247,1701.0,1956.0
749.24,0.3324524312896406,0.33746218351354684,1694.0,1892.0
749.72,0.34789156626506024,0.3352889493550186,1643.0,1992.0
750.2,0.32061805890873973,0.3334662773285692,1665.0,2071.0
750.68,0.3625438157235854,0.33694908065759044,1660.0,1997.0
751.16,0.3133133133133133,0.33693343854903424,1671.0,1998.0
751.64,0.3205955334987593,0.33401278412616175,1689.0,2015.0
752.11,0.3296332046332046,0.33159099263563435,1705.0,2072.0
752.59,0.3411172161172161,0.3337835727096727,1641.0,2184.0
753.07,0.3679923334930522,0.3328315167187094,1615.0,2087.0
753.55,0.333176912247771,0.3370957532544141,1666.0,2131.0
754.03,0.303245887060916,0.33919909583214,1697.0,2249.0
754.51,0.323673651359786,0.34063785509152317,1631.0,2243.0
754.98,0.3425438596491228,0.34074237316716594,1647.0,2280.0
755.46,0.3530232558139535,0.33990601684802313,1713.0,2150.0
755.94,0.3559556786703601,0.3386390272982121,1675.0,2166.0
756.42,0.3416289592760181,0.34029502968166614,1706.0,2210.0
756.9,0.3440207972270364,0.3397165963346193,1668.0,2308.0
757.37,0.3421623968736431,0.338439513440468,1639.0,2303.0
757.85,0.35962877030162416,0.3375234694475203,1667.0,2155.0
758.33,0.3205070167496605,0.33263506816804955,1676.0,2209.0
758.81,0.31980591089545657,0.329124044639893,1690.0,2267.0
759.29,0.3178893178893179,0.32808589332471577,1646.0,2331.0
759.76,0.32977303070761016,0.3261773459450438,1626.0,2247.0
760.24,0.34386281588447654,0.31960024001519066,1656.0,2216.0
760.72,0.3070716658756526,0.31808223647794653,1653.0,2107.0
761.2,0.3065187239944521,0.3173301677251707,1664.0,2163.0
761.67,0.3336392840752639,0.31727280180202183,1633.0,2179.0
762.15,0.3230769230769231,0.31498856803819153,1628.0,2340.0
762.63,0.2938577110030932,0.31428082828901477,1684.0,2263.0
763.11,0.3053269813772196,0.3165899121968915,1662.0,2309.0
763.58,0.3122852233676976,0.31871382633667367,1677.0,2328.0
764.06,0.31731565865782935,0.3215574827594866,1631.0,2414.0
764.54,0.3069306930693069,0.3210033449541639,1682.0,2323.0
765.01,0.3367854183927092,0.3222822264218304,1655.0,2414.0
765.49,0.33016250495441934,0.32672372439367575,1631.0,2523.0
765.97,0.327757865392274,0.32964539968536444,1669.0,2511.0
766.45,0.36207584830339323,0.33145182307514565,1626.0,2505.0
766.92,0.3175355450236967,0.33617866045561773,1650.0,2532.0
767.4,0.3066465256797583,0.3358995632811623,1718.0,2648.0
767.88,0.3497419610956729,0.3342928141598861,1686.0,2519.0
768.35,0.341501976284585,0.330807199227523,1654.0,2530.0
768.83,0.3353798925556408,0.32678398313465856,1643.0,2606.0
769.31,0.35419906687402797,0.32652963118412304,1673.0,2572.0
769.78,0.3339944466481555,0.3256136395143755,1692.0,2521.0
770.26,0.3140950137416568,0.32209965669438984,1673.0,2547.0
770.73,0.29290171606864274,0.3187375358319583,1680.0,2564.0
771.21,0.3218436873747495,0.31716949649292175,1673.0,2495.0
771.69,0.3149920255183413,0.3157478167558735,1625.0,2508.0
772.16,0.29748660898228263,0.31659066087067356,1638.0,2427.0
772.64,0.31460213289581623,0.3184385626855739,1665.0,2438.0
773.11,0.3078807676602695,0.3199934615012449,1711.0,2449.0
773.59,0.31969949916527546,0.32273841332920544,1689.0,2396.0
774.07,0.3399822695035461,0.3277217689169062,1661.0,2256.0
774.54,0.34242288779615554,0.3327882928338627,1650.0,2237.0
775.02,0.3325740318906606,0.3368577298230444,1674.0,2195.0
775.49,0.3084507042253521,0.33703033001072574,1694.0,2130.0
775.97,0.3492932056543548,0.3366882870709424,1628.0,2193.0
776.45,0.3648255813953488,0.3338323014998981,1644.0,2064.0
776.92,0.34815184815184813,0.3312857337979371,1664.0,2002.0
777.4,0.35529650278763303,0.3287893166753233,1657.0,1973.0
777.87,0.3096067695370831,0.328769218382108,1650.0,2009.0
778.35,0.31627906976744186,0.3246632997668351,1660.0,1935.0
778.82,0.3114224137931034,0.3210574539560674,1700.0,1856.0
779.3,0.31695721077654515,0.3169031575482498,1669.0,1893.0
779.77,0.30760986066452306,0.31561205892017874,1644.0,1866.0
780.25,0.30824972129319955,0.3177348937437724,1675.0,1794.0
780.72,0.30823401950162516,0.31496218802160214,1655.0,1846.0
781.2,0.3287671232876712,0.3140772173358042,1649.0,1825.0
781.67,0.3066088840736728,0.31616455076435573,1625.0,1846.0
782.15,0.3423855165069223,0.3174230031428279,1649.0,1878.0
782.62,0.33083511777301927,0.3197676982257283,1654.0,1868.0
783.1,0.2885520125457397,0.32131391078803745,1703.0,1913.0
783.57,0.30257270693512306,0.3189544398385807,1743.0,1788.0
784.05,0.3378305450620615,0.3180389218015838,1687.0,1853.0
784.52,0.3201943844492441,0.31733900396948056,1666.0,1852.0
785.0,0.33169667212220405,0.3195206644174383,1648.0,1833.0
785.47,0.32369614512471656,0.33076814428094764,1699.0,1764.0
785.94,0.30517241379310345,0.33545711014657514,1711.0,1740.0
786.42,0.2974537037037037,0.33537571309893244,1708.0,1728.0
786.89,0.33538633818589025,0.33334418275558003,1699.0,1786.0
787.37,0.35265172225259706,0.33534138822568343,1648.0,1829.0
787.84,0.40102681118083283,0.3383517129229383,1636.0,1753.0
788.32,0.34946236559139787,0.34078833613320253,1682.0,1674.0
788.79,0.3370165745856354,0.3394958406887362,1700.0,1629.0
789.26,0.2998790810157195,0.3362211364889155,1699.0,1654.0
789.74,0.3516687268232386,0.33618532206182095,1661.0,1618.0
790.21,0.35379939209726446,0.3337377277923729,1657.0,1645.0
790.69,0.32953864589574594,0.3349443734387468,1672.0,1669.0
791.16,0.2845287492590397,0.33838190776979193,1708.0,1687.0
791.63,0.30263929618768326,0.338926392227553,1648.0,1705.0
792.11,0.3522935779816514,0.33387055808213306,1648.0,1635.0
792.58,0.37655086848635233,0.3320808565088871,1672.0,1612.0
793.05,0.36152882205513787,0.3312797696970902,1653.0,1596.0
793.53,0.3713919178960872,0.33362250519642633,1666.0,1559.0
794.0,0.30532392559332905,0.3304252422443247,1656.0,1559.0
794.47,0.30111038536903983,0.32551323758593,1702.0,1531.0
794.95,0.33590237636480413,0.3262687467637848,1660.0,1557.0
795.42,0.3215277777777778,0.3235944411741025,1666.0,1440.0
795.89,0.30795610425240055,0.31679712972637414,1660.0,1458.0
796.37,0.27066666666666667,0.3201986711009752,1690.0,1500.0
796.84,0.30317353139770425,0.3264443398811444,1671.0,1481.0
797.31,0.3841059602649007,0.3293370418772099,1644.0,1359.0
797.79,0.3347857661583152,0.3308948542368614,1691.0,1377.0
798.26,0.3034188034188034,0.3334603087034682,1692.0,1404.0
798.73,0.33933933933933935,0.34058026466273056,1706.0,1332.0
799.2,0.3635670731707317,0.35039503373600717,1674.0,1312.0
799.68,0.3648293963254593,0.34834051092083157,1713.0,1143.0
800.15,0.33710590137429264,0.35054658160790464,1660.0,1237.0
800.62,0.3336106489184692,0.3549837520025218,1672.0,1202.0
801.09,0.34186622625928986,0.3590635166987249,1666.0,1211.0
801.57,0.40132122213047067,0.3619801657830358,1659.0,1211.0
802.04,0.36356073211314477,0.36746473517576067,1675.0,1202.0
802.51,0.35684647302904565,0.37529127802624157,1689.0,1205.0
802.98,0.34779050736497547,0.37661489781907925,1647.0,1222.0
803.46,0.3801369863013699,0.3759145137252604,1642.0,1168.0
803.93,0.39273356401384085,0.3764503679365748,1636.0,1156.0
804.4,0.4196750902527076,0.3824919555439738,1677.0,1108.0
804.87,0.4153713298791019,0.38821835118585446,1653.0,1158.0
805.34,0.34684684684684686,0.3983227857583742,1680.0,1110.0
805.82,0.3348623853211009,0.4041246007550716,1687.0,1090.0
806.29,0.4066797642436149,0.39997844591924525,1680.0,1018.0
806.76,0.4239766081871345,0.39351200299205547,1669.0,1026.0
807.23,0.41411042944785276,0.3867528826891347,1620.0,978.0
807.7,0.44883485309017224,0.38960796470646486,1617.0,987.0
808.17,0.4381551362683438,0.3985829235136009,1675.0,954.0
808.65,0.3512720156555773,0.3959173831428327,1655.0,1022.0
809.12,0.35501066098081024,0.40712167592607285,1730.0,938.0
809.59,0.3477801268498943,0.41516517843583295,1704.0,946.0
810.06,0.3753976670201485,0.4129754669514663,1668.0,943.0
810.53,0.4246119733924612,0.4114767381946083,1693.0,902.0
811.0,0.3800243605359318,0.4152312011284004,1668.0,821.0
811.47,0.536019536019536,0.42147770784585337,1627.0,819.0
811.94,0.49454545454545457,0.4304322856901119,1644.0,825.0
812.42,0.4269377382465057,0.43167114494229547,1674.0,787.0
812.89,0.4231678486997636,0.43077516499435364,1632.0,846.0
813.36,0.38881664499349805,0.44470960125066006,1700.0,769.0
813.83,0.4174757281553398,0.4461896148618212,1701.0,721.0
814.3,0.4373259052924791,0.457220338038125,1658.0,718.0
814.77,0.38778625954198476,0.45945663414354443,1722.0,655.0
815.24,0.4156521739130435,0.4627479573816761,1729.0,575.0
815.71,0.5193687230989957,0.47439820777594327,1637.0,697.0
816.18,0.5508196721311476,0.47589881014289104,1696.0,610.0
816.65,0.6048526863084922,0.4767510571587696,1678.0,577.0
817.12,0.4493006993006993,0.4942224312045711,1709.0,572.0
817.59,0.4560810810810811,0.5076086701239464,1680.0,592.0
818.06,0.5053191489361702,0.5008045411768787,1634.0,564.0
818.53,0.4324817518248175,0.48758765332884324,1690.0,548.0
819.0,0.44584837545126355,0.48237040687914007,1691.0,554.0
819.47,0.5625,0.4865238400040599,1681.0,528.0
819.94,0.5495145631067961,0.49272078604757635,1671.0,515.0
820.41,0.45132743362831856,0.48653669724091586,1674.0,565.0
820.88,0.41865079365079366,0.4880569611664959,1675.0,504.0
821.35,0.5526802218114603,0.4950549914053546,1678.0,541.0
821.82,0.4908350305498982,0.482580091806961,1691.0,491.0
822.29,0.5180505415162455,0.488041006630302,1651.0,554.0
822.76,0.4434782608695652,0.49971171899101224,1649.0,575.0
823.23,0.44768439108061747,0.5131527620749124,1649.0,583.0
823.7,0.515828677839851,0.5167333539662611,1635.0,537.0
824.17,0.43775100401606426,0.5138036970651175,1657.0,498.0
824.64,0.6041237113402061,0.5127887106335832,1655.0,485.0
825.11,0.5680345572354212,0.5228594891977895,1664.0,463.0
825.58,0.5530612244897959,0.5436612255283242,1639.0,490.0
826.05,0.5884861407249466,0.5478345654192827,1644.0,469.0
826.52,0.46153846153846156,0.5549768962103367,1648.0,546.0
826.99,0.5079006772009029,0.5557890148722345,1656.0,443.0
827.46,0.5441860465116279,0.5570297231865473,1630.0,430.0
827.93,0.6557017543859649,0.568278784684056,1624.0,456.0
828.39,0.5575620767494357,0.5706867151141792,1660.0,443.0
828.86,0.5091743119266054,0.5849441800143176,1660.0,436.0
829.33,0.6122448979591837,0.5825583676133762,1612.0,441.0
829.8,0.580441640378549,0.586918388916412,1695.0,317.0
830.27,0.6655518394648829,0.590388461155834,1661.0,299.0
830.74,0.612565445026178,0.6034634223120592,1665.0,382.0
831.21,0.6041131105398457,0.6109875495609571,1644.0,389.0
831.68,0.48404255319148937,0.613087598023614,1669.0,376.0
832.14,0.5877862595419847,0.6035180102569455,1643.0,393.0
832.61,0.6904024767801857,0.6072699935459521,1662.0,323.0
833.08,0.6883116883116883,0.6092018548404358,1677.0,308.0
833.55,0.5844155844155844,0.5889834698314673,1684.0,308.0
834.02,0.633245382585752,0.6028270531290331,1649.0,379.0
834.49,0.4847457627118644,0.6126198557462631,1684.0,295.0
834.95,0.7030716723549488,0.5981871166006678,1646.0,293.0
835.42,0.6318840579710145,0.5785468862808257,1663.0,345.0
835.89,0.40192926045016075,0.5809580410175619,1698.0,311.0
836.36,0.622478386167147,0.5670919865134993,1666.0,347.0
836.83,0.6857142857142857,0.5792473315021555,1664.0,315.0
837.29,0.5460750853242321,0.5998850461564244,1675.0,293.0
837.76,0.4919093851132686,0.6076643822948068,1660.0,309.0
838.23,0.6085271317829457,0.6286021982992606,1692.0,258.0
838.7,0.49458483754512633,0.6381955149172029,1652.0,277.0
839.16,0.6062992125984252,0.6200626828370026,1663.0,254.0
839.63,0.9094488188976378,0.6107789153117735,1642.0,254.0
840.1,0.7096774193548387,0.6151705313175807,1673.0,248.0
840.57,0.6113074204946997,0.5954742807243201,1688.0,283.0
841.03,0.7184115523465704,0.5939031209134694,1682.0,277.0
841.5,0.5043859649122807,0.590462742137287,1668.0,228.0
841.97,0.45323741007194246,0.5659210223028592,1669.0,278.0
842.44,0.5358255451713395,0.5749532803673754,1642.0,321.0
842.9,0.41156462585034015,0.5755872442002583,1666.0,294.0
843.37,0.4788732394366197,0.5778369980565105,1697.0,284.0
843.84,0.5718954248366013,0.6477805671703779,1657.0,306.0
844.3,0.6640316205533597,0.6826548459651638,1665.0,253.0
844.77,0.8,0.6867193502715593,1647.0,235.0
845.24,0.6176470588235294,0.7195888617124993,1710.0,238.0
845.7,0.740909090909091,0.7312760058539436,1719.0,220.0
846.17,1.2038216560509554,0.75066303994686,1690.0,157.0
846.64,0.801980198019802,0.7886077039784806,1691.0,202.0
847.1,0.5764705882352941,0.785052148422925,1657.0,255.0
847.57,0.7402597402597403,0.7987591406537796,1694.0,231.0
848.04,0.5957446808510638,0.8056938725885116,1657.0,235.0
848.5,0.7657657657657657,0.756871340010939,1646.0,222.0
848.97,1.0434782608695652,0.7458514024007397,1669.0,184.0
849.43,0.7644444444444445,0.826179027121514,1649.0,225.0
849.9,0.7547169811320755,0.9047846320429085,1622.0,265.0
850.37,0.8102564102564103,0.9367195979200662,1669.0,195.0
850.83,0.7155963302752294,1.0518861406095448,1661.0,218.0
851.3,0.6917808219178082,1.055188587746632,1683.0,146.0
851.76,1.379746835443038,1.0555298575879017,1730.0,79.0
852.23,1.5263157894736843,1.081043381149571,1677.0,114.0
852.7,0.9150943396226415,1.0685436365382726,1635.0,212.0
853.16,1.9174311926605505,1.0778223268640432,1644.0,109.0
853.63,1.0765027322404372,1.1049857080868966,1643.0,183.0
854.09,0.7678571428571429,1.0345110245425926,1646.0,224.0
854.56,1.0098522167487685,0.9700514886059769,1640.0,203.0
855.02,0.6852589641434262,1.0056849117865698,1639.0,251.0
855.49,0.8083832335329342,0.8823628451520937,1660.0,167.0
855.96,0.9634146341463414,0.8424209052613834,1660.0,164.0
856.42,0.675,0.8662376006142234,1640.0,200.0
856.89,0.8817204301075269,0.8817937323228051,1641.0,186.0
857.35,1.2714285714285714,0.9407326246408568,1651.0,140.0
857.82,0.6842105263157895,0.9916403330335952,1680.0,152.0
858.28,0.6770833333333334,0.9871021483074858,1669.0,192.0
858.75,1.0060240963855422,0.9979207323782819,1640.0,166.0
859.21,1.1654135338345866,0.9778159162582858,1633.0,133.0
859.68,1.2746478873239437,0.8976929266650975,1642.0,142.0
860.14,1.3174603174603174,0.9459385407001852,1650.0,126.0
860.61,0.9180327868852459,0.9236325062174267,1709.0,122.0
861.07,0.7831858407079646,0.9225146326613467,1607.0,226.0
861.53,0.680672268907563,0.9143066126112213,1678.0,119.0
862.0,0.47019867549668876,0.8614993581254021,1682.0,151.0
862.46,1.1666666666666667,0.8761818978079419,1643.0,114.0
862.93,0.4540229885057471,0.9230882965387721,1663.0,174.0
863.39,0.9948453608247423,0.9360318483903058,1589.0,194.0
863.86,1.0833333333333333,0.9929646214995494,1628.0,132.0
864.32,0.7465753424657534,0.9997909077960344,1657.0,146.0
864.78,1.4642857142857142,1.0116956697007964,1661.0,112.0
865.25,1.3870967741935485,1.0762032807601316,1662.0,124.0
865.71,0.912621359223301,1.0718911584707609,1682.0,103.0
866.18,1.25,1.0675182211770315,1664.0,112.0
866.64,0.5384615384615384,1.0783952781254247,1692.0,104.0
867.1,1.2857142857142858,1.0778000400301866,1689.0,63.0
867.57,1.0990990990990992,1.154474977995447,1669.0,111.0
868.03,0.9517241379310345,1.1540461754064502,1662.0,145.0
868.5,1.0396039603960396,1.0937520577593913,1622.0,101.0
868.96,0.8553459119496856,1.2289968130041466,1621.0,159.0
869.42,1.4583333333333333,1.199524483531817,1716.0,72.0
869.89,2.1538461538461537,1.2477778389280298,1703.0,39.0
870.35,0.9083333333333333,1.2660974886269898,1669.0,120.0
870.81,0.6470588235294118,1.224637092587386,1670.0,119.0
871.28,1.8909090909090909,1.2851025013924176,1674.0,55.0
871.74,0.990990990990991,1.3856977394876555,1648.0,111.0
872.2,1.5816326530612246,1.2358760380103246,1634.0,98.0
872.67,1.1349206349206349,1.2802539722826254,1624.0,126.0
873.13,0.625,1.3787059846665264,1685.0,96.0
873.59,1.46,1.3771150755756174,1707.0,50.0
874.05,2.4642857142857144,1.3849927206625645,1642.0,56.0
874.52,0.6556291390728477,1.3662233947503817,1620.0,151.0
874.98,1.352112676056338,1.2958505973133636,1678.0,71.0
875.44,1.631578947368421,1.3675971726558296,1638.0,95.0
875.91,1.875,1.75159717265583,1643.0,80.0
876.37,1.069767441860465,1.682311458370115,1621.0,172.0
876.83,1.393939393939394,1.8614853865680936,1690.0,66.0
877.29,0.43119266055045874,1.8704407856291265,1699.0,109.0
877.76,1.3424657534246576,1.8872828908922843,1693.0,73.0
878.22,5.3,1.8556270467364404,1734.0,10.0
878.68,1.7714285714285714,2.2563426102427018,1676.0,70.0
879.14,2.4473684210526314,2.302242788495821,1686.0,38.0
879.6,1.4416666666666667,2.4834478467650993,1614.0,120.0
880.07,1.8,2.506777028998391,1657.0,60.0
880.53,1.5584415584415585,2.0956659178872803,1646.0,77.0
880.99,5.076923076923077,1.9368904076831983,1681.0,13.0
881.45,1.8529411764705883,1.6628432207503487,1661.0,34.0
881.91,2.2432432432432434,1.594352229759358,1657.0,37.0
882.38,1.5757575757575757,1.5070795024866306,1663.0,66.0
882.84,1.1888888888888889,1.4779680199098015,1676.0,90.0
883.3,0.1836734693877551,1.0817260938968833,1689.0,98.0
883.76,-0.29310344827586204,0.9744539542718025,1703.0,58.0
884.22,0.7567567567567568,0.9720808494596733,1689.0,37.0
884.68,0.9272727272727272,0.9404310178098416,1694.0,55.0
885.15,1.2673267326732673,0.9627185995091881,1658.0,101.0
885.61,1.1145038167938932,1.1298584989472242,1679.0,131.0
886.07,0.7802197802197802,1.3460109490379681,1663.0,91.0
886.53,2.2195121951219514,1.371763844790864,1719.0,41.0
886.99,1.2592592592592593,1.4023699053969245,1674.0,81.0
887.45,1.411764705882353,1.2910218475142132,1689.0,34.0
887.91,1.855072463768116,1.2603406966040547,1652.0,69.0
888.37,1.868421052631579,1.3885687185820765,1720.0,38.0
888.83,1.0142857142857142,1.2719746419270244,1670.0,70.0
889.3,1.2333333333333334,1.416419086371469,1744.0,-30.0
889.76,0.15384615384615385,1.0641315046721225,1727.0,39.0
890.22,0.8076923076923077,1.321481401152454,1684.0,78.0
890.68,2.0625,1.017972629222629,1658.0,32.0
891.14,1.0535714285714286,0.8965440577940575,1709.0,56.0
891.6,2.7037037037037037,1.0372107244607245,1679.0,27.0
892.06,-2.111111111111111,1.113826109076109,1674.0,-9.0
892.52,4.428571428571429,1.0794336899010812,1687.0,14.0
892.98,-1.1666666666666667,1.109850356567748,1698.0,-12.0
893.44,-0.2,1.166993213710605,1708.0,-10.0
893.9,2.64,0.9909410251584164,1706.0,25.0
894.36,0.92,1.3629896362695275,1657.0,100.0
894.82,0.463768115942029,1.0166237214825602,1636.0,69.0
895.28,2.3666666666666667,1.2069745986755427,1642.0,30.0
895.74,1.625,1.3376888843898285,1686.0,32.0
896.2,0.9431818181818182,1.3178749309014564,1645.0,88.0
896.66,1.609375,1.2980971531236785,1677.0,64.0
897.12,0.9649122807017544,1.4545774843866184,1639.0,114.0
897.58,0.7368421052631579,1.3270017268108607,1707.0,38.0
898.04,1.1071428571428572,1.3380311385755668,1647.0,56.0
898.5,2.441860465116279,1.4914402294846576,1649.0,43.0
898.96,0.7222222222222222,1.5729269719089003,1679.0,72.0
899.42,2.0285714285714285,0.9335786009815814,1648.0,35.0
899.88,1.0909090909090908,0.05989439045526568,1650.0,66.0
900.34,1.7352941176470589,0.04690737746825313,1655.0,34.0
900.8,2.477272727272727,-0.12288842514093584,1674.0,44.0
901.26,2.4242424242424243,-0.1276949170260795,1677.0,33.0
901.71,-5.428571428571429,0.2988597048226605,1673.0,-7.0
902.17,-8.0,-0.7102312042682493,1688.0,-5.0
902.63,0.9772727272727273,-0.6957606160329548,1648.0,44.0
903.09,0.7439024390243902,-0.655026350298689,1644.0,82.0
903.55,0.6741573033707865,-0.8078672593895982,1674.0,89.0
904.01,6.294117647058823,-0.13058388702425872,1693.0,17.0
904.47,-9.0,0.746774603541779,1689.0,-9.0
904.93,1.88,0.7096533914205668,1586.0,75.0
905.39,2.8846153846153846,0.7662155284705088,1681.0,26.0
905.84,0.8958333333333334,1.0858965723269787,1678.0,48.0
906.3,1.3442622950819672,0.5617479655158331,1661.0,61.0
906.76,0.7735849056603774,1.5916330229870974,1648.0,53.0
907.22,0.6060606060606061,1.534067805595793,1682.0,33.0
907.68,1.3095238095238095,1.3256062671342546,1654.0,42.0
908.14,3.870967741935484,1.3217372195152068,1657.0,31.0
908.59,1.0526315789473684,1.5263353802509128,1650.0,76.0
909.05,1.2988505747126438,1.557310223018208,1648.0,87.0
909.51,1.3043478260869565,2.2744819401899257,1644.0,92.0
909.97,0.8,2.0778152735232585,1664.0,40.0
910.43,0.8571428571428571,1.8807184993297106,1626.0,98.0
910.88,3.3902439024390243,1.904402709856026,1621.0,41.0
911.34,1.0833333333333333,2.074517652384762,1650.0,48.0
911.8,7.777777777777778,2.156204081897278,1658.0,9.0
912.26,-0.6571428571428571,2.2715529191065804,1706.0,-35.0
912.72,1.9,2.2437333702344002,1669.0,20.0
913.17,1.2894736842105263,2.041551085253656,1627.0,76.0
913.63,3.0,2.0582177519203224,1658.0,31.0
914.09,2.121212121212121,1.519464364386447,1671.0,33.0
914.54,1.9534883720930232,1.9976786501007326,1667.0,43.0
915.0,0.5789473684210527,4.607678650100732,1703.0,38.0
915.46,1.368421052631579,4.632577435525834,1680.0,-19.0
915.92,1.25,5.352577435525834,1668.0,12.0
916.37,2.3902439024390243,5.316646699595098,1630.0,41.0
916.83,4.125,5.242265604321279,1631.0,32.0
917.29,28.0,5.211337159614006,1677.0,2.0
917.74,1.5384615384615385,4.95123924039736,1647.0,52.0
918.2,10.2,5.340524954683074,1654.0,5.0
918.66,1.7619047619047619,5.2398844028230105,1681.0,42.0
919.11,1.2096774193548387,5.076221612125336,1659.0,62.0
919.57,0.2696629213483146,2.3222533581570812,1634.0,89.0
920.03,-1.2325581395348837,2.251505795860223,1689.0,-43.0
920.48,5.142857142857143,0.08150579586022283,1633.0,28.0
920.94,1.3838383838383839,0.15425148988251314,1617.0,99.0
921.4,2.488372093023256,-0.026716252052970874,1655.0,43.0
921.85,0.4603174603174603,2.479650789145532,1668.0,63.0
922.31,0.8309859154929577,2.7919691030990195,1678.0,71.0
922.77,-11.5,1.971231775910079,1695.0,-12.0
923.22,2.4893617021276597,1.781628425331119,1671.0,47.0
923.68,-0.6,1.7167912160287935,1695.0,-15.0
924.13,25.333333333333332,1.7589947641146941,1655.0,3.0
924.59,1.890625,1.7857971626644085,1636.0,64.0
925.05,-3.064516129032258,1.4857971626644078,1677.0,-31.0
925.5,-0.5121951219512195,0.9424165480071982,1701.0,-41.0
925.96,1.84,-4.497583451992803,1674.0,25.0
926.41,0.8823529411764706,-6.930916785326135,1652.0,85.0
926.87,1.099009900990099,-7.1673477063787665,1608.0,101.0
927.33,-14.5,-6.657192389771836,1693.0,-2.0
927.78,-2.9444444444444446,-6.460689858708791,1668.0,-18.0
928.24,-55.0,-6.499235313254245,1651.0,-1.0
928.69,1.0,-6.399970607371892,1623.0,75.0
929.15,-0.47368421052631576,-6.386954930804236,1705.0,-38.0
929.6,2.037037037037037,-4.842837283745412,1682.0,27.0
930.06,1.4528301886792452,-4.555535696443825,1657.0,53.0
930.51,1.4545454545454546,1.019758421203234,1669.0,55.0
930.97,1.875,1.0994194381523865,1670.0,32.0
931.42,1.2291666666666667,1.3034545258716848,1664.0,48.0
931.88,0.9411764705882353,0.8553063777235365,1698.0,34.0
932.33,-0.07142857142857142,0.6335527706203178,1722.0,-14.0
932.79,0.7529411764705882,0.6280982251657726,1659.0,85.0
933.24,1.7966101694915255,0.5024164069839542,1631.0,59.0
933.7,1.5666666666666667,0.6584471087383402,1652.0,60.0
934.15,-2.4444444444444446,0.6079464829561125,1697.0,-9.0
934.61,-0.7647058823529411,1.2008036258132555,1653.0,-51.0
935.06,1.4,0.8630095081661964,1649.0,55.0
935.51,0.6181818181818182,0.6648299726985254,1683.0,55.0
935.97,2.789473684210526,0.4314966393651921,1690.0,19.0
936.42,0.43617021276595747,0.899196897763125,1671.0,94.0
936.88,5.857142857142857,1.1465008193317523,1686.0,7.0
937.33,-2.625,0.5953897082206412,1678.0,-8.0
937.79,-0.18518518518518517,0.31538970822064133,1681.0,27.0
938.24,-0.7666666666666667,0.18154037901527503,1680.0,30.0
938.69,2.2325581395348837,0.0362284424844419,1628.0,43.0
939.15,1.7083333333333333,-0.5494858432298437,1671.0,24.0
939.6,-4.111111111111111,-0.10484298608698654,1669.0,-9.0
940.06,-2.1818181818181817,0.25485200301976735,1663.0,-22.0
940.51,1.4509803921568627,-0.6351479969802332,1636.0,51.0
940.96,-1.0169491525423728,-0.6478774951442473,1681.0,59.0
941.42,0.0,-0.8187108284775808,1699.0,5.0
941.87,1.8214285714285714,-0.940933050699803,1659.0,28.0
942.32,3.411764705882353,-0.14417980394655605,1656.0,34.0
942.78,-9.666666666666666,-0.13427784316224245,1679.0,-3.0
943.23,2.1052631578947367,-0.38642908175415913,1636.0,38.0
943.68,0.0,-3.486429081754161,1679.0,0.0
944.14,-5.333333333333333,-3.4005719388970155,1683.0,-12.0
944.59,5.785714285714286,-3.5744014707097405,1636.0,14.0
945.04,1.55,-2.2202348040430744,1645.0,20.0
945.5,-3.5384615384615383,-2.720761119832548,1677.0,-13.0
945.95,-31.0,-2.62953304965711,1656.0,-1.0
946.4,2.68,-2.0173264768871566,1651.0,25.0
946.85,1.6734693877551021,-2.339231238791919,1643.0,49.0
947.31,3.875,-2.417487052745407,1690.0,8.0
947.76,-2.9,-2.026798793636095,1664.0,-10.0
948.21,0.9122807017543859,1.1545571385672944,1600.0,114.0
948.66,0.7887323943661971,0.9643349163450723,1621.0,71.0
949.12,2.566666666666667,1.0116938599225034,1624.0,30.0
949.57,0.7674418604651163,1.5741938599225034,1627.0,129.0
950.02,0.3684210526315789,1.9411169368455803,1654.0,95.0
950.47,0.8135593220338984,1.9185455830880518,1631.0,59.0
950.93,0.7777777777777778,1.9839031128822016,1643.0,54.0
951.38,2.1470588235294117,1.8928614462155346,1727.0,-34.0
951.83,9.5,1.9113553554071183,1686.0,2.0
952.28,0.7692307692307693,1.60576325014396,1621.0,130.0
952.73,0.6865671641791045,1.8744073179405707,1640.0,67.0
953.19,1.4423076923076923,1.922435991775696,1653.0,52.0
953.64,1.65625,1.8077301094227545,1615.0,64.0
954.09,0.9523809523809523,0.8910634427560883,1652.0,42.0
954.54,-2.6875,0.3891403658330112,1688.0,-16.0
954.99,3.5,1.0061979351293868,1640.0,28.0
955.44,1.2580645161290323,1.0388902428216944,1666.0,31.0
955.9,1.0,0.8627389270322205,1706.0,33.0
956.35,0.3333333333333333,3.0675008317941264,1669.0,75.0
956.8,-4.25,3.445928251148964,1678.0,-12.0
957.25,6.857142857142857,3.1061846614053743,1654.0,7.0
957.7,1.7692307692307692,3.0336040162440843,1646.0,39.0
958.15,-0.10526315789473684,3.1881494707895386,1717.0,-57.0
958.6,23.0,3.3135462961863635,1664.0,2.0
959.06,1.096774193548387,3.3510462961863636,1718.0,-31.0
959.51,0.10256410256410256,2.1884089335490007,1710.0,-78.0
959.96,0.532258064516129,3.2114858566259246,1653.0,62.0
960.41,2.5454545454545454,3.338678839082065,1663.0,11.0
960.86,1.5873015873015872,0.9806143229530326,1624.0,63.0
961.31,-3.875,0.922000733385428,1675.0,-8.0
961.76,-4.769230769230769,0.9256332120179066,1684.0,-13.0
962.21,12.0,0.8279629611218492,1683.0,2.0
962.66,1.1666666666666667,0.8158417490006372,1682.0,24.0
963.11,-0.5806451612903226,0.8192737524326406,1701.0,-31.0
963.56,0.5106382978723404,1.5067737524326406,1669.0,47.0
964.01,0.1388888888888889,2.0526157482746363,1696.0,-36.0
964.46,-0.4444444444444444,0.9348379704968587,1714.0,-27.0
964.91,2.4242424242424243,0.8020422715721273,1663.0,33.0
965.36,1.6216216216216217,0.9064482511157937,1641.0,37.0
965.81,3.0,0.7682876471350114,1684.0,11.0
966.26,0.6891891891891891,-4.345601241753879,1620.0,74.0
966.71,0.8222222222222222,-3.1411567973094323,1630.0,90.0
967.16,-0.16129032258064516,-3.0585810397336743,1681.0,31.0
967.61,0.4634146341463415,-2.9032432018958367,1655.0,41.0
968.06,-0.8709677419354839,-3.1019611506137856,1670.0,-31.0
968.51,-51.0,-3.063562996361973,1684.0,-1.0
968.96,11.6,-2.535258902794721,1664.0,5.0
969.41,3.25,-2.6941298705366568,1654.0,16.0
969.86,3.175,-2.948579442059399,1607.0,40.0
970.31,1.0128205128205128,-3.0307134370966198,1598.0,78.0
970.76,1.0731707317073171,2.2359532295700464,1646.0,41.0
971.21,6.105263157894737,1.1710351967831607,1628.0,19.0
971.66,-1.75,0.9460351967831606,1669.0,-32.0
972.11,-2.081081081081081,0.7937525880875086,1684.0,-37.0
972.56,-1.6923076923076923,0.7824705368054574,1654.0,-26.0
973.01,1.6666666666666667,0.8104475812817845,1635.0,42.0
973.45,0.9508196721311475,0.4142069797780251,1661.0,61.0
973.9,1.0,0.6688944797780251,1686.0,18.0
974.35,1.6521739130434783,0.9103359212194665,1648.0,46.0
974.8,0.9,0.9045666904502356,1690.0,10.0
975.25,1.3529411764705883,0.841900023783569,1624.0,34.0
975.7,2.142857142857143,0.7576288673812651,1645.0,42.0
976.15,0.796875,0.6126288673812651,1641.0,64.0
976.6,0.3333333333333333,0.955103783769225,1682.0,-39.0
977.04,-1.75,0.7317704504358915,1662.0,-4.0
977.49,1.04,0.7062802543574602,1667.0,25.0
977.94,0.10810810810810811,0.48814838622559215,1678.0,-37.0
978.39,-0.45,0.43043890820361413,1697.0,-40.0
978.84,5.076923076923077,0.5139886917533977,1646.0,13.0
979.29,-1.3333333333333333,0.6759452134925281,1669.0,-24.0
979.73,1.0980392156862746,0.8183737849210996,1649.0,51.0
980.18,-0.038461538461538464,0.8875629741102887,1693.0,26.0
980.63,0.21978021978021978,1.1592296407769556,1684.0,91.0
981.08,1.1688311688311688,0.9115373330846478,1634.0,77.0
981.52,-0.13043478260869565,1.0642255051276583,1662.0,-23.0
981.97,2.4642857142857144,0.4907852199226671,1627.0,28.0
982.42,0.8,0.598477527614975,1694.0,-50.0
982.87,2.2666666666666666,0.6166864215248035,1655.0,30.0
983.32,2.6,0.5816214864598686,1660.0,35.0
983.76,0.1935483870967742,0.7041887742445476,1693.0,-31.0
984.21,-4.636363636363637,0.5710935361493095,1666.0,-11.0
984.66,1.0384615384615385,0.6279356414124673,1623.0,26.0
985.1,0.40186915887850466,0.8612689747458009,1592.0,107.0
985.55,0.8181818181818182,0.5012689747458005,1618.0,66.0
986.0,1.0952380952380953,0.20413635825834525,1640.0,84.0
986.45,1.1333333333333333,0.6588441504661375,1635.0,90.0
986.89,1.368421052631579,0.5131375315037048,1646.0,76.0
987.34,4.6,0.4900934727587114,1689.0,5.0
987.79,-1.0,3.0082752909405306,1685.0,-6.0
988.23,-2.7777777777777777,2.80875148141672,1692.0,9.0
988.68,-0.08928571428571429,2.962084814750053,1647.0,56.0
989.13,-0.4186046511627907,1.9919093761535613,1693.0,43.0
989.57,0.17142857142857143,1.481909376153562,1664.0,35.0
990.02,26.0,1.593020487264673,1693.0,-1.0
990.47,-0.9,2.02988917413336,1663.0,-10.0
990.91,2.6666666666666665,1.9780334318364408,1647.0,6.0
991.36,-8.333333333333334,0.8698938969527195,1700.0,-3.0
991.81,-0.5,0.8482055852644084,1692.0,-32.0
992.25,0.1111111111111111,-1.5851277480689248,1715.0,9.0
992.7,1.5909090909090908,-1.5576277480689247,1686.0,22.0
993.14,-0.6078431372549019,-1.6492944147355912,1651.0,51.0
993.59,-11.5,-0.5838182242594006,1657.0,-4.0
994.04,-0.045454545454545456,-0.28865693393681996,1684.0,-22.0
994.48,1.6666666666666667,-0.004529949809835759,1694.0,-3.0
994.93,-0.625,0.02148552407797827,1702.0,-40.0
995.37,1.75,0.1264558843150966,1655.0,16.0
995.82,2.3214285714285716,1.3264558843150964,1619.0,28.0
996.26,2.4516129032258065,1.312251338860551,1642.0,31.0
996.71,2.9523809523809526,1.2268346721938843,1629.0,21.0
997.16,1.851063829787234,1.6112096721938844,1635.0,47.0
997.6,0.4418604651162791,1.4902326606996315,1684.0,43.0
998.05,0.5,1.3840898035567744,1654.0,64.0
998.49,-0.1875,0.4944840687897489,1678.0,-32.0
998.94,0.8125,0.017103116408796804,1656.0,32.0
999.38,3.21875,0.4089198103531506,1641.0,32.0
999.83,0.5402298850574713,1.1147337638415227,1651.0,87.0
1000.27,1.26,11.264733763841525,1615.0,50.0
1000.72,-6.444444444444445,11.407726188083945,1654.0,-9.0
1001.16,-1.8214285714285714,11.576476188083946,1697.0,-28.0
1001.61,5.769230769230769,11.354601188083947,1656.0,13.0
1002.05,7.5,11.543911532911533,1664.0,4.0
1002.5,102.0,11.4845781995782,1651.0,1.0
1002.94,1.2424242424242424,12.272925083047035,1653.0,33.0
1003.39,2.5,12.455067940189892,1643.0,34.0
1003.83,1.0,12.025367085489037,1683.0,37.0
1004.27,2.433333333333333,11.475367085489037,1663.0,30.0
1004.72,0.6666666666666666,1.426795656917608,1695.0,33.0
1005.16,1.4390243902439024,1.4168389469608982,1656.0,41.0
1005.61,0.0,1.1468389469608982,1701.0,0.0
1006.05,1.4722222222222223,1.0635056136275647,1633.0,36.0
1006.5,2.0,1.1275796877016389,1661.0,21.0
1006.94,1.5142857142857142,1.0956956297306242,1735.0,-35.0
1007.38,1.1428571428571428,1.0073487462617896,1716.0,-42.0
1007.83,-0.2,0.9641055030185464,1668.0,45.0
1008.27,0.16666666666666666,0.9850650989781424,1672.0,42.0
1008.71,3.074074074074074,1.2850650989781427,1665.0,27.0
1009.16,0.34782608695652173,1.2566250332966975,1644.0,46.0
1009.6,0.5555555555555556,1.3510349711848963,1653.0,-27.0
1010.05,-0.43243243243243246,1.5184033922375277,1699.0,-74.0
1010.49,1.6818181818181819,1.4684033922375277,1687.0,22.0
1010.93,5.0,1.6776626514967874,1675.0,7.0
1011.38,1.2298850574712643,1.7727046042046437,1614.0,87.0
1011.82,2.0869565217391304,1.917149048649088,1621.0,46.0
1012.26,1.4736842105263157,3.760392291892332,1676.0,19.0
1012.71,-0.3333333333333333,3.7317453574314428,1673.0,21.0
1013.15,5.166666666666667,3.552435012603857,1696.0,6.0
1013.59,1.2982456140350878,3.62944650685673,1618.0,57.0
1014.03,2.0,3.591121225053188,1650.0,31.0
1014.48,18.0,3.6664800767278294,1678.0,1.0
1014.92,1.3953488372093024,3.9642578545056066,1718.0,-43.0
1015.36,3.206896551724138,3.8075911878389403,1643.0,29.0
1015.81,2.0,3.648599959768765,1619.0,49.0
1016.25,1.7037037037037037,3.4722841702950804,1599.0,81.0
1016.69,2.227272727272727,1.749556897567808,1669.0,44.0
1017.13,2.6444444444444444,1.6700220138468778,1599.0,45.0
1017.58,3.6,1.3013323586744638,1644.0,10.0
1018.02,-0.2916666666666667,1.3638323586744643,1685.0,-24.0
1018.46,0.23684210526315788,1.341081035923141,1713.0,-38.0
1018.9,0.7727272727272727,1.2036748641132995,1651.0,44.0
1019.35,0.6,1.046126971392993,1673.0,60.0
1019.79,-0.48,0.7141971468315895,1681.0,-25.0
1020.23,2.625,0.8866070567414995,1665.0,8.0
1020.67,1.4761904761904763,0.7957799890723265,1647.0,63.0
1021.11,0.8532110091743119,0.6740628173551547,1585.0,109.0
1021.55,1.0689655172413792,0.6081804644139783,1627.0,58.0
1022.0,0.2807017543859649,1.084751892985407,1638.0,57.0
1022.44,1.4324324324324325,0.9309475451593199,1652.0,37.0
1022.88,-0.6714285714285714,0.9833284975402725,1695.0,-70.0
1023.32,-0.4444444444444444,1.0920372473691098,1675.0,-63.0
1023.76,-0.058823529411764705,2.7351406956449726,1678.0,-34.0
1024.2,4.285714285714286,2.3870705202063753,1648.0,21.0
1024.65,1.0869565217391304,3.0723987055345607,1660.0,69.0
1025.09,2.0,2.968112991248846,1665.0,41.0
1025.53,1.9402985074626866,3.1387479118837676,1628.0,67.0
1025.97,17.5,3.3086302648249437,1697.0,2.0
1026.41,-3.2,3.9800588362535154,1649.0,-5.0
1026.85,8.285714285714286,3.4713631840796015,1628.0,7.0
1027.29,-1.7142857142857142,3.0713631840796016,1635.0,-21.0
1027.73,1.2619047619047619,2.8085833333333334,1629.0,42.0
1028.17,1.64,1.0134220430107526,1622.0,50.0
1028.61,11.0,1.6160307386629267,1676.0,-2.0
1029.06,-4.0,1.887459310091498,1662.0,-7.0
1029.5,-2.0,2.194736938123843,1671.0,-13.0
1029.94,-0.6875,2.1760936317446875,1728.0,16.0
1030.38,-0.45161290322580644,2.1939118135628695,1662.0,31.0
1030.82,2.8260869565217392,1.372483242134298,1656.0,23.0
1031.26,11.0,1.9115076323782003,1683.0,4.0
1031.7,1.3584905660377358,2.2565076323782005,1640.0,53.0
1032.14,1.0754716981132075,2.4865479549588456,1643.0,53.0
1032.58,1.8181818181818181,2.4592092452814263,1595.0,66.0
1033.02,2.7857142857142856,2.8599338829625855,1598.0,28.0
1033.46,1.3902439024390243,1.6992195972482995,1617.0,41.0
1033.9,1.45,1.6717038739778596,1692.0,20.0
1034.34,1.6129032258064515,2.03558527559511,1676.0,31.0
1034.78,-0.725,1.86895696719465,1699.0,-80.0
1035.22,6.833333333333333,1.6903855386232216,1684.0,6.0
1035.66,-0.6071428571428571,1.573861148379319,1718.0,-28.0
1036.1,1.0833333333333333,1.4426542518275949,1659.0,12.0
1036.54,4.714285714285714,1.484394232277253,1658.0,7.0
1036.98,0.1518987341772152,1.7018942322772528,1672.0,79.0
1037.42,1.0,1.0185608989439192,1723.0,18.0
1037.85,0.225,1.3268942322772528,1732.0,-40.0
1038.29,0.13793103448275862,1.4259683063513269,1695.0,29.0
1038.73,2.0303030303030303,0.6368926760992258,1687.0,33.0
1039.17,1.45,0.4842028026815044,1681.0,20.0
1039.61,0.0,0.6353655933791789,1679.0,0.0
1040.05,2.4761904761904763,1.5295322600458459,1636.0,42.0
1040.49,2.074074074074074,1.7157391565975697,1661.0,27.0
1040.93,-3.176470588235294,1.7196054052914045,1661.0,-17.0
1041.37,-1.375,1.7976823283683274,1656.0,-40.0
1041.81,2.511627906976744,2.0583966140826133,1629.0,43.0
1042.24,9.166666666666666,1.9393489950349942,1687.0,6.0
1042.68,2.0,1.9719415876275868,1665.0,26.0
1043.12,2.0689655172413794,4.114588646451117,1633.0,29.0
1043.56,2.230769230769231,4.172921979784449,1626.0,39.0
1044.0,2.607142857142857,3.8367591890867745,1667.0,28.0
1044.44,1.2857142857142858,3.038611040938627,1639.0,49.0
1044.88,2.4,2.9165180176828134,1668.0,10.0
1045.31,18.25,3.0096214659586757,1619.0,4.0
1045.75,-0.7916666666666666,2.633211209548419,1661.0,-24.0
1046.19,-0.85,2.472496923834133,1672.0,-20.0
1046.63,1.1851851851851851,2.4939254952627046,1598.0,81.0
1047.07,0.7790697674418605,2.1774549070274105,1604.0,86.0
1047.5,3.0,0.129121573694077,1686.0,22.0
1047.94,-1.5333333333333334,0.6446518767243801,1707.0,-15.0
1048.38,1.0,0.9296518767243802,1737.0,-39.0
1048.82,1.5,0.5957487428212461,1632.0,60.0
1049.25,-0.7647058823529411,0.5615917660770601,1671.0,-34.0
1049.69,-2.2333333333333334,0.3227028771881712,1637.0,-30.0
1050.13,4.363636363636363,0.3160362105215045,1647.0,22.0
1050.57,2.0,0.2079281024133964,1623.0,50.0
1051.0,-2.1538461538461537,0.03292810241339639,1665.0,-13.0
1051.44,0.4375,0.2573986906486906,1739.0,-32.0
1051.88,0.6111111111111112,0.5517846555609711,1667.0,36.0
1052.31,-1.6,0.3897067334830493,1708.0,-30.0
1052.75,-0.08108108108108109,0.8754210191973351,1697.0,-37.0
1053.19,-0.25,1.1998965436728595,1671.0,20.0
1053.63,1.48,1.1561465436728593,1646.0,50.0
1054.06,0.7105263157894737,1.3387854325617483,1660.0,76.0
1054.5,2.742857142857143,1.2446187658950814,1630.0,35.0
1054.94,6.857142857142857,1.4345450558213715,1652.0,7.0
1055.37,1.0909090909090908,1.4595450558213716,1680.0,11.0
1055.81,0.0,1.472414621038763,1688.0,0.0
1056.25,2.4375,1.4802081433059693,1634.0,32.0
1056.68,-2.5416666666666665,1.370024993122819,1662.0,-24.0
1057.12,1.8181818181818181,0.6202081433059693,1665.0,44.0
1057.55,-0.0,0.4190119710571655,1745.0,-25.0
1057.99,1.608695652173913,0.7994467536658613,1654.0,46.0
1058.43,0.7884615384615384,1.3390300869991947,1653.0,52.0
1058.86,1.641025641025641,1.6274072799816506,1637.0,39.0
1059.3,-0.6410256410256411,1.5262342594537912,1703.0,-39.0
1059.74,-0.9210526315789473,1.6995675927871245,1670.0,-38.0
1060.17,3.8043478260869565,1.5620313609030667,1597.0,46.0
1060.61,7.833333333333333,1.5398518737235796,1660.0,6.0
1061.04,0.34210526315789475,1.5237493096210155,1654.0,38.0
1061.48,0.8064516129032258,1.6404834526709478,1652.0,31.0
1061.91,1.7333333333333334,1.759255382495509,1658.0,15.0
1062.35,0.23333333333333334,2.2288205998868147,1665.0,30.0
1062.78,0.5666666666666667,1.9079872665534805,1681.0,30.0
1063.22,1.48,2.104887851348802,1645.0,25.0
1063.66,0.5263157894736842,1.4670998329156222,1651.0,57.0
1064.09,0.26666666666666666,2.427099832915623,1648.0,45.0
1064.53,8.5,2.439766499582289,1680.0,-2.0
1064.96,4.625,2.7600229098386997,1673.0,8.0
1065.4,2.311111111111111,2.192022909838699,1610.0,45.0
1065.83,-5.571428571428571,2.220747263094721,1641.0,-14.0
1066.27,11.333333333333334,2.206901109248567,1692.0,6.0
1066.7,0.36,1.356901109248567,1707.0,-25.0
1067.14,3.769230769230769,0.8388455536930113,1670.0,13.0
1067.57,-4.2,0.6077344425819002,1700.0,-10.0
1068.01,0.8135593220338984,1.2870995219469796,1644.0,59.0
1068.44,0.1282051282051282,1.5537661886136467,1619.0,78.0
1068.87,0.0,0.967766188613646,1677.0,25.0
1069.31,-0.5555555555555556,0.5966402131398446,1700.0,-18.0
1069.74,-0.0,0.9931108013751389,1691.0,-11.0
1070.18,1.2222222222222223,0.8917548691717488,1688.0,36.0
1070.61,14.0,1.0052501458249206,1687.0,1.0
1071.05,-5.5,1.2102501458249202,1680.0,6.0
1071.48,0.057971014492753624,1.4470557013804757,1698.0,69.0
1071.91,-0.23529411764705882,1.5172684673379222,1735.0,17.0
1072.35,-0.2,1.1750462451157,1726.0,-35.0
1072.78,1.263157894736842,0.858379578449034,1672.0,19.0
1073.22,2.05,1.2333795784490336,1641.0,20.0
1073.65,1.8125,1.1575824769997582,1699.0,-32.0
1074.08,0.7021276595744681,1.1941553670253338,1620.0,47.0
1074.52,-2.2,1.306838293854602,1662.0,-20.0
1074.95,10.833333333333334,0.3805225043809176,1681.0,6.0
1075.38,-1.75,0.3969510758094895,1696.0,-20.0
1075.82,-0.7,0.37527554389459594,1667.0,-10.0
1076.25,0.13043478260869565,0.7868809597553308,1715.0,23.0
1076.68,0.926829268292683,1.1999042155692843,1649.0,41.0
1077.12,-8.0,0.47371373937880823,1688.0,-1.0
1077.55,2.2142857142857144,0.6487137393788083,1607.0,42.0
1077.98,1.5957446808510638,0.8072851679502369,1681.0,47.0
1078.42,4.818181818181818,0.8815432769909544,1667.0,11.0
1078.85,1.930232558139535,0.7938603501616862,1648.0,43.0
1079.28,3.5714285714285716,1.7912287712143176,1631.0,28.0
1079.71,0.0,2.2031335331190793,1665.0,0.0
1080.15,0.8857142857142857,2.2089436804185887,1633.0,35.0
1080.58,0.873015873015873,1.8394542657236945,1612.0,63.0
1081.01,0.05,1.4364310099097408,1735.0,-20.0
1081.44,1.9736842105263157,1.1118724224298053,1657.0,38.0
1081.88,6.333333333333333,1.2908197908508576,1672.0,9.0
1082.31,1.6538461538461537,1.2463343837848055,1652.0,52.0
1082.74,1.1232876712328768,1.050869531177096,1665.0,73.0
1083.17,-2.1,1.1367786220861869,1699.0,10.0
1083.61,0.3258426966292135,0.9709891484019763,1654.0,89.0
1084.04,1.7894736842105263,-0.1123441849313574,1705.0,-19.0
1084.47,0.44086021505376344,0.3333823107951389,1720.0,-93.0
1084.9,-1.0816326530612246,0.5067678293861366,1695.0,-49.0
1085.33,0.9090909090909091,-0.18323217061386377,1690.0,-44.0
1085.77,0.3157894736842105,0.02536003031145062,1668.0,19.0
1086.2,-4.5,0.026412661890398093,1664.0,-2.0
1086.63,6.111111111111111,0.04270283247571234,1671.0,18.0
1087.06,2.857142857142857,0.07528317364634053,1651.0,35.0
1087.49,-9.0,0.1078635148169687,1647.0,-5.0
1087.92,2.411764705882353,0.14044385598759684,1636.0,34.0
1088.36,1.8,0.17302419715822503,1680.0,30.0
