#Name:: Glass2_UV;Timestamp:: 2026-Feb-13 14:03:57;Device:: Ossila Spectrometer (COM3);Colour:: (32: 141: 194);Integration Time (ms):: 60.0;Accumulation Number:: 1;Averaging Number:: #1;Delay Time:: 0;Trigger Mode:: Internal;Measurement Type:: Transmission/Reflection;Comments:: 
#Wavelength (nm),Intensity,Smoothed,Background,Reference
323.87,1.5,0.9233751042263458,1679.0,20.0
324.39,0.14285714285714285,1.3399192218734048,1713.0,14.0
324.92,1.1285714285714286,1.1436155255697082,1660.0,70.0
325.44,1.2345679012345678,1.292236215224881,1644.0,81.0
325.96,2.9655172413793105,1.3281078280346186,1641.0,29.0
326.49,0.4634146341463415,1.2121987371255276,1682.0,41.0
327.01,4.8125,1.3066630228398135,1682.0,16.0
327.54,-1.5454545454545454,1.363250324427115,1681.0,-11.0
328.06,1.9,1.2917935343036582,1674.0,40.0
328.58,0.6791044776119403,1.0418519796572525,1620.0,134.0
329.11,0.3409090909090909,0.9000559707880729,1694.0,44.0
329.63,1.0875,0.48057067667042597,1669.0,80.0
330.15,1.6944444444444444,0.678705874805624,1617.0,72.0
330.68,0.52,0.5497228239581664,1670.0,50.0
331.2,0.4661016949152542,0.5347535526675606,1644.0,118.0
331.72,-0.9545454545454546,0.6342626435766516,1699.0,-22.0
332.24,0.6176470588235294,0.5864715476862405,1689.0,34.0
332.77,0.4358974358974359,0.4447379466152901,1664.0,78.0
333.29,0.6101694915254238,0.4252379466152902,1646.0,59.0
333.81,0.5294117647058824,0.41686307124141175,1633.0,136.0
334.34,1.336,0.6109842833626238,1621.0,125.0
334.86,0.6095890410958904,0.617969577480271,1631.0,146.0
335.38,0.27710843373493976,0.7643798338905273,1646.0,83.0
335.9,0.325,0.7819343133094135,1639.0,80.0
336.43,0.38235294117647056,0.7550800933605644,1630.0,102.0
336.95,0.9866666666666667,0.7148134266938978,1659.0,75.0
337.47,0.6875,0.7075858658678909,1688.0,64.0
338.0,1.9,0.7136412562606306,1694.0,30.0
338.52,0.7857142857142857,0.7028803866954132,1718.0,28.0
339.04,0.2608695652173913,0.7408355687682423,1668.0,69.0
339.56,0.9333333333333333,0.6130549780509427,1655.0,75.0
340.09,0.5373134328358209,0.5805549780509427,1632.0,134.0
340.61,0.33766233766233766,0.45559562845744683,1667.0,77.0
341.13,0.21739130434782608,0.3920241998860182,1687.0,69.0
341.65,0.7619047619047619,0.40365654160989317,1638.0,105.0
342.17,-0.2911392405063291,0.4275275093518287,1706.0,79.0
342.7,0.3625,0.5580066923840361,1669.0,80.0
343.22,0.6504065040650406,0.6397334163642812,1660.0,123.0
343.74,0.15,0.6679942859294984,1691.0,40.0
344.26,0.37719298245614036,0.6861434323805318,1632.0,114.0
344.78,1.1720430107526882,0.8771621183359266,1615.0,93.0
345.31,1.8421052631578947,0.9709121183359266,1667.0,38.0
345.83,1.1549295774647887,0.9777815802889731,1662.0,71.0
346.35,0.5,1.0384337542020166,1680.0,56.0
346.87,0.9433962264150944,1.0364287416706883,1668.0,53.0
347.39,1.619047619047619,0.9997122454734683,1647.0,63.0
347.92,1.3,0.7341457869542888,1672.0,70.0
348.44,0.7191011235955056,0.6533467067588303,1667.0,89.0
348.96,0.7565217391304347,0.6242557976679213,1646.0,115.0
349.48,0.35714285714285715,0.557653401303784,1659.0,126.0
350.0,0.8048780487804879,0.4355445577663692,1645.0,82.0
350.52,-0.8135593220338984,0.35852074824255964,1691.0,59.0
351.04,0.3469387755102041,0.3171838842906524,1667.0,98.0
351.57,0.20909090909090908,0.26845478730068595,1674.0,110.0
352.09,0.2773722627737226,0.23439339414838364,1680.0,137.0
352.61,0.3979591836734694,0.17375853044680545,1689.0,98.0
353.13,0.5297619047619048,0.2599925114306831,1642.0,168.0
353.65,0.3057324840764331,0.23091661140775255,1636.0,157.0
354.17,0.2692307692307692,0.21875068989756877,1664.0,156.0
354.69,0.01652892561983471,0.2453884636201965,1704.0,121.0
355.21,0.19852941176470587,0.21858689553533545,1695.0,136.0
355.73,0.04878048780487805,0.1829267223751623,1688.0,164.0
356.26,0.056179775280898875,0.2011264801024883,1658.0,178.0
356.78,0.08743169398907104,0.19062676084364494,1670.0,183.0
357.3,0.54375,0.21106689153747543,1675.0,160.0
357.82,0.12994350282485875,0.19165545146475757,1644.0,177.0
358.34,0.17316017316017315,0.18510142503063848,1646.0,231.0
358.86,0.48773006134969327,0.18451656008533007,1616.0,326.0
359.38,0.16423357664233576,0.17715343314926799,1668.0,274.0
359.9,0.22093023255813954,0.12618400590468593,1663.0,344.0
360.42,0.004415011037527594,0.11725427261021465,1666.0,453.0
360.94,-0.01675977653631285,0.10162320827225377,1688.0,537.0
361.46,0.05033112582781457,0.0539167919326145,1684.0,755.0
361.98,0.013800424628450107,0.039242973863224395,1724.0,942.0
362.5,0.034055727554179564,0.01922038061979763,1688.0,1292.0
363.02,0.04064616988014591,0.020850258102468943,1686.0,1919.0
363.54,0.016849529780564265,0.022911389817724878,1690.0,2552.0
364.06,0.010665897953300663,0.018532446342539595,1714.0,3469.0
364.58,0.017495395948434623,0.018434137113796954,1726.0,4344.0
365.1,0.02070430012387188,0.016293757335847196,1640.0,5651.0
365.62,0.02071378586424073,0.013005719700683142,1645.0,7145.0
366.14,0.003851540616246499,0.011983954372115736,1664.0,8568.0
366.66,0.006541691075961726,0.011311525160727276,1681.0,10242.0
367.18,0.012817332341023733,0.010115762497613503,1661.0,12093.0
367.7,0.012651929774681926,0.008622116912046788,1635.0,14069.0
368.22,0.007765793528505393,0.007014577429114496,1644.0,16225.0
368.74,0.006631876494890193,0.006937894184071019,1638.0,18396.0
369.26,0.003941605839416058,0.006882096720852443,1701.0,20550.0
369.78,0.005537769317296876,0.006262781469357673,1714.0,23114.0
370.3,0.005767844268204758,0.005566500218811851,1694.0,24966.0
370.82,0.004638391034917808,0.005386014803176745,1682.0,26949.0
371.34,0.0030847081658117287,0.005242093100462966,1693.0,28852.0
371.86,0.005983716443775954,0.00544047243889863,1678.0,30583.0
372.38,0.006624179826076037,0.005405549202493226,1649.0,31853.0
372.9,0.005689117269223711,0.0053438312408363685,1663.0,32694.0
373.42,0.005960939372154326,0.005463718363330028,1657.0,33384.0
373.94,0.005192659467752404,0.0055007460037460355,1654.0,33894.0
374.46,0.005925399223772701,0.005532405860943519,1667.0,33753.0
374.98,0.005188536953242836,0.005481834105898482,1693.0,33150.0
375.49,0.005150664651636184,0.005734204994505819,1699.0,32423.0
376.01,0.005837262259854389,0.005765463629435932,1659.0,31179.0
376.53,0.0034549845699718236,0.005615908150366705,1714.0,29812.0
377.05,0.006300315015750788,0.005908832259004608,1673.0,28570.0
377.57,0.006118462275625668,0.005875489883760051,1681.0,27131.0
378.09,0.008212826155297077,0.006033860664020859,1615.0,25448.0
378.61,0.006273525721455458,0.00601716562475069,1642.0,23910.0
379.13,0.0036971046770601338,0.006635190911731485,1688.0,22450.0
379.65,0.008854640310151726,0.006389463617276147,1656.0,20893.0
380.16,0.004855113200797261,0.006584010415503627,1713.0,19567.0
380.68,0.006734372454244284,0.007449437154963768,1671.0,18413.0
381.2,0.005670311867152693,0.00816051670518916,1657.0,17283.0
381.72,0.009635237439779766,0.00903183096933316,1650.0,15983.0
382.24,0.003843042071197411,0.009387298591620774,1750.0,14832.0
382.76,0.008063930257900472,0.009719085016213094,1690.0,13765.0
383.28,0.016867093549898484,0.01012643379698954,1633.0,12806.0
383.79,0.01338432122370937,0.01103503747643762,1652.0,12029.0
384.31,0.012410247318500134,0.011930070333956143,1668.0,11281.0
384.83,0.012409316533027874,0.012432403238932667,1686.0,10476.0
385.35,0.008172977446720464,0.01241848838641327,1660.0,9666.0
385.87,0.010807860262008733,0.011960783537773278,1670.0,9160.0
386.38,0.014756348661633494,0.01204119364014695,1667.0,8742.0
386.9,0.018585566014965003,0.01206879259910679,1663.0,8286.0
387.42,0.008866371120962635,0.011825806352319999,1650.0,7895.0
387.94,0.007924781732706514,0.012669052325502472,1694.0,7445.0
388.46,0.012290045063498567,0.013975182462554876,1676.0,7323.0
388.97,0.014188422247446084,0.014778064437602961,1682.0,7048.0
389.49,0.012686236908098539,0.014822574648811829,1699.0,6779.0
390.01,0.009979454065159965,0.01589881642575282,1661.0,6814.0
390.53,0.016605437178545186,0.015973132388874774,1647.0,6805.0
391.05,0.023869161632532783,0.016068228951523947,1630.0,6787.0
391.56,0.02278516841211435,0.01684025619225307,1636.0,7066.0
392.08,0.01903066812705367,0.01665423507803735,1659.0,7304.0
392.6,0.019628788890372548,0.017004402313822133,1622.0,7489.0
393.12,0.008667941363926068,0.01685107300640783,1613.0,7845.0
393.63,0.013241010689990281,0.015513077830172004,1702.0,8232.0
394.15,0.021908694654737326,0.01444366482964336,1681.0,8718.0
394.67,0.010826025765941324,0.014376443434467817,1691.0,9237.0
395.19,0.01348112642300779,0.013586837778892049,1662.0,10014.0
395.7,0.015072144104402168,0.01399415867345082,1644.0,10881.0
396.22,0.010489209870174534,0.013765544851018175,1693.0,11631.0
396.74,0.01209103840682788,0.01265229445736877,1710.0,12654.0
397.25,0.018358454175298234,0.012710287783940373,1627.0,13999.0
397.77,0.011732732334614875,0.012054380309531593,1661.0,15086.0
398.29,0.012741150309513793,0.011657666605416915,1674.0,16639.0
398.8,0.010954872465663833,0.011622454132107975,1678.0,18348.0
399.32,0.010776190718243277,0.01167156687730926,1676.0,19673.0
399.84,0.011405959031657356,0.010883611890885235,1676.0,21480.0
400.35,0.006922051678919988,0.010697964948716743,1693.0,23259.0
400.87,0.011105007063255377,0.010403006740362096,1652.0,25484.0
401.39,0.010137085137085137,0.010264927128507878,1652.0,27720.0
401.9,0.012582165858840715,0.010260393234261839,1608.0,30122.0
402.42,0.010478904311058001,0.010249037442054321,1665.0,32637.0
402.94,0.009876262912929958,0.010739264706594753,1673.0,35236.0
403.45,0.009791568225967344,0.010820306385690344,1659.0,38094.0
403.97,0.00957407634712164,0.011071663741364247,1702.0,40735.0
404.49,0.01073085177578289,0.011111722797789759,1683.0,43333.0
405.0,0.01129240110958216,0.011453140196844182,1712.0,45783.0
405.52,0.011824324324324325,0.01191920060195633,1647.0,48544.0
406.04,0.011915423854211285,0.0124074246528089,1640.0,51362.0
406.55,0.012650658693824162,0.012881675106525776,1649.0,53515.0
407.07,0.012982756423095832,0.013363775061590415,1693.0,54919.0
407.58,0.013893078301602229,0.013674953194728107,1686.0,56359.0
408.1,0.01453686696405143,0.013923567774426035,1679.0,57165.0
408.62,0.014673808734493046,0.014187538339940032,1660.0,57313.0
409.13,0.014316580884290407,0.014228851403130275,1678.0,56927.0
409.65,0.015551851326429281,0.014405230138700875,1645.0,56392.0
410.16,0.014404182440959076,0.01464100974150871,1652.0,55470.0
410.68,0.014310470121303594,0.014804701741701322,1648.0,53667.0
411.2,0.01455512950935128,0.015048786075612927,1713.0,51116.0
411.71,0.01306378932572657,0.01498013695888851,1712.0,48378.0
412.23,0.014746543778801843,0.014627516479434527,1678.0,45570.0
412.74,0.01625087432968058,0.014596550617830375,1623.0,42890.0
413.26,0.01617378696597755,0.01473168750600315,1598.0,40003.0
413.77,0.0171146520736091,0.014809238929739132,1664.0,37278.0
414.29,0.013630089717046238,0.01502897022427482,1714.0,34776.0
414.8,0.012025646531889438,0.015332645044078674,1683.0,32597.0
415.32,0.014094523824917566,0.015305908703900537,1652.0,30934.0
415.84,0.015661839003031322,0.015387501053007494,1649.0,29690.0
416.35,0.015330643746711104,0.015535788154804518,1658.0,28505.0
416.87,0.015261102271083467,0.015946219997694716,1646.0,27652.0
417.38,0.017783291976840365,0.016520117224594597,1642.0,26598.0
417.9,0.015983510927899198,0.016682906642048623,1664.0,25714.0
418.41,0.01698971045704714,0.016676269055545114,1666.0,25074.0
418.93,0.01859752309157934,0.016798654894559714,1620.0,24143.0
419.44,0.01773440814594824,0.01696919225534998,1646.0,23570.0
419.96,0.01776461880088823,0.01733112778866509,1687.0,22967.0
420.47,0.01572241799945785,0.01792568497706351,1714.0,22134.0
420.99,0.015595463137996219,0.018068957270716342,1691.0,21160.0
421.5,0.0165545021368571,0.0180744711694541,1701.0,20357.0
422.01,0.0169664758789861,0.01784191085800393,1659.0,19568.0
422.53,0.02140264730999146,0.01831702703479023,1647.0,18736.0
423.04,0.02192908281188342,0.019091608356385882,1669.0,17739.0
423.56,0.01842243339357547,0.0193415205758282,1655.0,17153.0
424.07,0.0186526620789569,0.019172670027134117,1684.0,16566.0
424.59,0.015408805031446541,0.019258214606043062,1748.0,15900.0
425.1,0.02251578056875122,0.019235846098128985,1680.0,15367.0
425.62,0.023468231215414363,0.018858260858678776,1682.0,14999.0
426.13,0.018094585332419467,0.019256199002378085,1707.0,14590.0
426.64,0.014865996649916249,0.019769028906259967,1709.0,14328.0
427.16,0.017821921668075513,0.020390499697726928,1685.0,14196.0
427.67,0.02117896223085069,0.020668317320370538,1679.0,14165.0
428.19,0.01815323041738136,0.020631504242351034,1673.0,13992.0
428.7,0.022401814830568554,0.021485342754210175,1636.0,14106.0
429.22,0.02378096111777574,0.022431570377537166,1676.0,14171.0
429.73,0.021623512946116166,0.023039692134464246,1662.0,14290.0
430.24,0.02529395679518731,0.023815126843608005,1637.0,14628.0
430.76,0.023100100435219283,0.024218729936548007,1672.0,14935.0
431.27,0.026632970451010887,0.024738336072372063,1639.0,15432.0
431.78,0.02432827288318618,0.02494229183114762,1666.0,15743.0
432.3,0.023903139237346313,0.0254629481549527,1668.0,16023.0
432.81,0.028933309322288252,0.026011634593498867,1601.0,16659.0
433.33,0.02218926134678137,0.026681306158690805,1691.0,16855.0
433.84,0.02759787618880915,0.027112905608773153,1652.0,17139.0
434.35,0.02582051870553133,0.02752655754414202,1662.0,17428.0
434.87,0.026830076184166943,0.027845003242350293,1668.0,18114.0
435.38,0.030780821180648982,0.02805744016470856,1678.0,18583.0
435.89,0.029796816087138668,0.029087187801214873,1642.0,19096.0
436.41,0.03094896495183439,0.02962007745358564,1640.0,19516.0
436.92,0.028464792236874845,0.0303661470929722,1649.0,20095.0
437.43,0.027087596219429015,0.031242520150967578,1680.0,20526.0
437.95,0.031057678545870902,0.03113322768020032,1652.0,20961.0
438.46,0.032486737711844516,0.031405308825530415,1656.0,21301.0
438.97,0.03292677271251681,0.03174554231371884,1702.0,21563.0
439.48,0.03328121509939692,0.032558566697992654,1677.0,22385.0
440.0,0.03559380676412075,0.03378866657046481,1655.0,23122.0
440.51,0.029687896472976403,0.034418750658367775,1709.0,23646.0
441.02,0.03251762754043965,0.03498558580874095,1697.0,24110.0
441.54,0.03435129983371862,0.03564613179347427,1720.0,24657.0
442.05,0.036595036079613036,0.03636114682164461,1730.0,25222.0
442.56,0.0393885949441505,0.036970976473095496,1709.0,25515.0
443.07,0.03735851942490058,0.038581964158709736,1704.0,26152.0
443.59,0.038155089215576254,0.04018934171061164,1684.0,26733.0
444.1,0.03953223255984996,0.041581797934136334,1611.0,27193.0
444.61,0.04043136538110035,0.04260333141801348,1689.0,27355.0
445.12,0.041692103278629655,0.04344892162852959,1682.0,27847.0
445.64,0.045797773329118815,0.04464782493542683,1658.0,28473.0
446.15,0.048591403059458714,0.046023726529039764,1643.0,28894.0
446.66,0.04827586206896552,0.04725352034149296,1655.0,29290.0
447.17,0.046810370918384504,0.04820907951226514,1699.0,29737.0
447.69,0.047844497049311506,0.04927969053206222,1658.0,29993.0
448.2,0.04934755249387295,0.049970513533383526,1659.0,30194.0
448.71,0.05191410515170566,0.05033041228190837,1672.0,30223.0
449.22,0.051830170684381886,0.050851961244774785,1655.0,30407.0
449.73,0.049986957088822226,0.05204596003467014,1650.0,30668.0
450.25,0.052398213476600425,0.05309481744360489,1667.0,30898.0
450.76,0.05270600334233192,0.0540518218831678,1673.0,31116.0
451.27,0.05219039054470709,0.054616395389637216,1667.0,31136.0
451.78,0.053491351697629724,0.05519700316277064,1697.0,31220.0
452.29,0.058750358817338054,0.05642934890990459,1672.0,31353.0
452.8,0.05833307113865903,0.057218142209918825,1656.0,31783.0
453.32,0.05891759688950207,0.05832166708847171,1727.0,31892.0
453.83,0.05755984021639984,0.059749836394795655,1726.0,31793.0
454.34,0.057636248415716095,0.06102175617978881,1699.0,31560.0
454.85,0.06231041456016178,0.06162048500760959,1624.0,31648.0
455.36,0.06028614647674272,0.06239520393769284,1625.0,31732.0
455.87,0.06374125212786079,0.06305888221176324,1649.0,31722.0
456.39,0.06647208360794653,0.06396071247539639,1632.0,31863.0
456.9,0.06621054954756124,0.06510919792679047,1637.0,31717.0
457.41,0.06473764709554578,0.0660710393024987,1677.0,32037.0
457.92,0.06608026043949164,0.06711734114917785,1684.0,31946.0
458.43,0.06555437963020606,0.06785627990302343,1643.0,32126.0
458.94,0.06657814285273136,0.06866140019597085,1675.0,32383.0
459.45,0.0691211029296569,0.06938382654813785,1682.0,31915.0
459.96,0.071928828317244,0.07008219949786701,1613.0,31698.0
460.47,0.07074916494353428,0.0708245630561135,1709.0,31435.0
460.98,0.07113063966631643,0.07195000037768687,1717.0,31407.0
461.5,0.07452328653742081,0.07285304528095789,1659.0,31413.0
462.01,0.07343481306923126,0.07374055655240644,1667.0,31402.0
462.52,0.0717213765928374,0.07440380091820013,1671.0,31469.0
463.03,0.07350389602195653,0.07554534337409238,1634.0,31699.0
463.54,0.0768087528459398,0.07655076541952875,1628.0,31624.0
464.05,0.07560859188544153,0.07734833280238179,1691.0,31425.0
464.56,0.07799621564414226,0.07826249776138505,1683.0,31181.0
465.07,0.07856127197518097,0.07927526393271388,1696.0,30944.0
465.58,0.08216458950245681,0.08003368011284212,1654.0,30731.0
466.09,0.0811848601206802,0.0806217558545937,1658.0,30991.0
466.6,0.08249896036595118,0.08133833072661614,1633.0,31261.0
467.11,0.08257646265926377,0.08217414174665424,1652.0,31159.0
467.62,0.08184903830612575,0.08322207958978654,1689.0,30935.0
468.13,0.08108805782323901,0.08395191699571145,1679.0,30991.0
468.64,0.08268951026345563,0.08456364099979852,1672.0,30935.0
469.15,0.08277434060566591,0.0851670852047759,1711.0,30710.0
469.66,0.0863543258445232,0.08574946877313949,1665.0,30757.0
470.17,0.08904065040650407,0.08672363150966203,1623.0,30750.0
470.68,0.08946296356170584,0.08755611699421079,1626.0,30929.0
471.19,0.08730210016155089,0.08885079878163633,1659.0,30950.0
471.7,0.08853340241572488,0.09036293471192061,1667.0,30881.0
472.21,0.08840029834289977,0.09127458586810043,1674.0,30837.0
472.72,0.09159066567135114,0.09169397211135125,1704.0,30811.0
473.23,0.08941291266872663,0.09260757010173708,1715.0,30745.0
473.74,0.09563632813771111,0.09400083304926062,1650.0,30731.0
474.25,0.09789569990850869,0.09529113413168643,1652.0,30604.0
474.76,0.09547083740632127,0.09671566507352969,1688.0,30690.0
475.27,0.09323451283901223,0.0976347130744277,1674.0,30493.0
475.78,0.09859894346556419,0.0987706819165888,1675.0,30477.0
476.29,0.10123472963678642,0.09968099689891068,1644.0,30533.0
476.8,0.10143641323998291,0.1000502522002384,1640.0,30423.0
477.31,0.1026456077613324,0.10105181855316414,1620.0,30201.0
477.81,0.10078114568033116,0.10217697601429415,1692.0,29956.0
478.32,0.10077260109033746,0.1026470148836729,1690.0,29899.0
478.83,0.10473947796092999,0.10291529034090541,1626.0,30151.0
479.34,0.10158825292178604,0.10318725890497313,1665.0,30033.0
479.85,0.10548650093557872,0.10342176766022204,1680.0,29928.0
480.36,0.10448608745031232,0.10377597108153463,1659.0,29937.0
480.87,0.10329933215935143,0.10434906999266785,1682.0,30097.0
481.38,0.10391748420911168,0.1045090196837349,1745.0,29764.0
481.89,0.1041560988806601,0.10510262489956672,1683.0,29571.0
482.4,0.10499069531382169,0.10534749456661147,1655.0,29555.0
482.9,0.10432317989345717,0.10568390624515488,1670.0,29284.0
483.41,0.1065035902016697,0.10604154842125833,1651.0,29107.0
483.92,0.10633897487160043,0.10669227640234608,1654.0,29011.0
484.43,0.10752430508010406,0.107223750410735,1625.0,29212.0
484.94,0.10793519760602621,0.10769184485275322,1663.0,29073.0
485.45,0.1078502042357464,0.10831810856947123,1681.0,29133.0
485.95,0.10687575392038601,0.10839826455894348,1715.0,29015.0
486.46,0.1104247640199889,0.10859428121859582,1682.0,28816.0
486.97,0.10947083896454933,0.10869368344161277,1646.0,28857.0
487.48,0.10967163973400407,0.10829678177284409,1704.0,29023.0
487.99,0.1105858170606372,0.10814917856781249,1656.0,29190.0
488.5,0.10730515009639217,0.10820781049744095,1671.0,29048.0
489.0,0.10829914146812399,0.10789912249134649,1622.0,29003.0
489.51,0.10851832731027362,0.10744680645022023,1603.0,29055.0
490.02,0.10396618091833928,0.10686938467859261,1624.0,29096.0
490.53,0.10637417218543047,0.10618139979986678,1640.0,28992.0
491.04,0.10746207321667066,0.10549871521588394,1644.0,29201.0
491.54,0.10733788395904437,0.10418916243592097,1586.0,29300.0
492.05,0.1049476785532866,0.10305868765276058,1671.0,29529.0
492.56,0.10389742201772786,0.10237572896632464,1694.0,29558.0
493.07,0.10370596827337886,0.1016566749468602,1635.0,29439.0
493.57,0.10047830425656377,0.10029647077733428,1641.0,29061.0
494.08,0.09520361366849418,0.09855466405382388,1667.0,29001.0
494.59,0.09721357947866971,0.09684363472906918,1675.0,28926.0
495.1,0.09713659405398,0.09526501681884773,1653.0,29196.0
495.6,0.09918363199078623,0.0934019760445833,1602.0,29521.0
496.11,0.09386003152141109,0.09196418679305364,1635.0,29821.0
496.62,0.08991981672394044,0.09082365900427568,1687.0,29682.0
497.13,0.08783738530573974,0.08908259662291118,1661.0,29862.0
497.63,0.08811124291551338,0.08721994573977304,1623.0,30348.0
498.14,0.08507556053073453,0.08485105081844112,1648.0,30373.0
498.65,0.0861004117412671,0.08244612424243491,1661.0,30116.0
499.15,0.08379833578071463,0.08029769539320865,1589.0,30645.0
499.66,0.07980295566502463,0.07820324120522845,1623.0,30450.0
500.17,0.0785100852225988,0.07570360279587975,1643.0,30391.0
500.68,0.07549468277746683,0.07333412138640713,1661.0,30373.0
501.18,0.06981076576134915,0.07070856253230076,1715.0,30597.0
501.69,0.06843552823167773,0.06782416777146742,1664.0,30905.0
502.2,0.06689284342593778,0.06515710086966262,1666.0,31244.0
502.7,0.06311485882202632,0.0623485535412933,1677.0,31308.0
503.21,0.06138074643600833,0.05962577584206924,1676.0,31215.0
503.72,0.05984482320020351,0.05724052012460281,1643.0,31448.0
504.22,0.054954388172381255,0.054677471690111015,1672.0,31790.0
504.73,0.05313228664697653,0.05205050489660613,1629.0,32165.0
505.23,0.05042461193890565,0.04956568974983224,1627.0,32147.0
505.74,0.04826690578522618,0.04734385937367046,1625.0,32341.0
506.25,0.04595820858668478,0.045107349904872404,1663.0,32399.0
506.75,0.0428050438867598,0.042872356811861155,1693.0,32356.0
507.26,0.04062317549088898,0.04073712571168875,1686.0,32543.0
507.77,0.03826670735428746,0.03857959158424875,1684.0,32770.0
508.27,0.039162442674390535,0.036413104363493924,1657.0,33144.0
508.78,0.037479728512222955,0.034387992645775266,1684.0,33298.0
509.28,0.03260445724226881,0.03272594575819274,1699.0,33339.0
509.79,0.03177997564525231,0.03129116666618544,1650.0,33669.0
510.3,0.028849270664505672,0.02978532290533126,1621.0,33935.0
510.8,0.026602033577677937,0.028027455263132585,1635.0,33832.0
511.31,0.025707091409498155,0.02615448241191029,1651.0,34154.0
511.81,0.02618457501093454,0.024761942921642226,1653.0,34295.0
512.32,0.026275384570816074,0.02343442648220952,1631.0,34519.0
512.82,0.023208269745745632,0.022441117831633932,1673.0,34729.0
513.33,0.021583766252403776,0.021864946209255567,1628.0,34841.0
513.84,0.01875,0.021295787370060916,1671.0,35040.0
514.34,0.018679062339588205,0.020665174187022555,1714.0,35066.0
514.85,0.018504811250925242,0.0200841525030818,1701.0,35126.0
515.35,0.01891618415874979,0.019856776292630482,1665.0,35578.0
515.86,0.02084031735389429,0.01996661473986964,1662.0,35796.0
516.36,0.02001550301755163,0.020399161039932,1657.0,36122.0
516.87,0.01987844318055091,0.021015070727314497,1683.0,35868.0
517.37,0.020465167731408503,0.021870299545773866,1662.0,36159.0
517.88,0.020934507641232475,0.022654012838536852,1644.0,36447.0
518.38,0.022682150724795343,0.023771019277690514,1661.0,36769.0
518.89,0.023075463000623662,0.025374061017467104,1674.0,36879.0
519.39,0.024838159213413147,0.027515978731212247,1647.0,36919.0
519.9,0.02705709943551889,0.030406492331655904,1664.0,36848.0
520.4,0.026753317086379638,0.034034421598897004,1698.0,36930.0
520.91,0.03201038174543095,0.038349873418344484,1700.0,36988.0
521.41,0.03604592041531751,0.04363972971568471,1691.0,37369.0
521.92,0.04129762031800235,0.049542727887490125,1726.0,37484.0
522.42,0.04937030373584506,0.05618009490660196,1656.0,37796.0
522.93,0.057213800313643495,0.06377094233831532,1676.0,38260.0
523.43,0.06583666891927016,0.07198099402992902,1691.0,38474.0
523.93,0.07597402597402597,0.08077820625579375,1640.0,38500.0
524.44,0.0838681409314673,0.09000052436660318,1635.0,38799.0
524.94,0.09343076962663716,0.09929616109165795,1640.0,38863.0
525.45,0.10266179140351325,0.1087444861143917,1705.0,39109.0
525.95,0.11411089866156787,0.11840210713843603,1653.0,39225.0
526.46,0.12401804267396482,0.12781843958755537,1622.0,39462.0
526.96,0.13352080142609657,0.13695399949346657,1650.0,39829.0
527.46,0.14232667098639287,0.14607851088684864,1691.0,40126.0
527.97,0.15169705054098118,0.15453284551702964,1706.0,40482.0
528.47,0.16241287915971336,0.162428096823841,1656.0,40748.0
528.98,0.17013735046521933,0.17010686197960698,1616.0,40626.0
529.48,0.17522373999057936,0.17714569834098803,1691.0,40337.0
529.98,0.18467588356045805,0.1841636515897433,1634.0,40433.0
530.49,0.18720513770532296,0.19051801070676813,1671.0,40485.0
530.99,0.19306341172968144,0.19600628953408045,1651.0,40308.0
531.5,0.20080569423162473,0.20129601438643827,1711.0,40462.0
532.0,0.20390916503990708,0.20617942889925867,1734.0,40469.0
532.5,0.21250620347394542,0.21042450921999603,1713.0,40300.0
533.01,0.21524064171122995,0.21457810707413447,1707.0,40392.0
533.51,0.21729566743283657,0.2181945959668535,1713.0,40461.0
534.01,0.22303459898879746,0.22140100886660588,1689.0,40348.0
534.52,0.22405788511878302,0.2245247325112767,1623.0,40494.0
535.02,0.22712668676783154,0.22667117908414844,1625.0,40462.0
535.52,0.22874111624670743,0.22886386654074461,1650.0,40242.0
536.03,0.22922830065687208,0.2311383290092464,1675.0,39886.0
536.53,0.23286982322914834,0.23309861421037667,1700.0,39769.0
537.03,0.23514640148661545,0.23513256453739026,1683.0,39822.0
537.54,0.2339706692026628,0.23710440634300076,1686.0,39958.0
538.04,0.23716751627719174,0.238949767505282,1648.0,39626.0
538.54,0.24004029211785444,0.2406093741646691,1695.0,39710.0
539.04,0.2426374510001005,0.2421189402696872,1738.0,39796.0
539.55,0.2443973883889183,0.2437345253264057,1708.0,39669.0
540.05,0.24684510482393648,0.24575710383521213,1655.0,39304.0
540.55,0.24719472786951985,0.24780408074214275,1633.0,39301.0
541.06,0.24582436725074291,0.2488830947659875,1710.0,39036.0
541.56,0.24796548427932932,0.24945876160459113,1715.0,38707.0
542.06,0.2513022520538005,0.2508230189598002,1662.0,38587.0
542.56,0.25419645429072724,0.2519025454354733,1675.0,38187.0
543.07,0.2576372853464979,0.2528594157314385,1681.0,37677.0
543.57,0.250830432356302,0.25403522440717086,1696.0,37631.0
544.07,0.248394119386137,0.25496826696188396,1670.0,37207.0
544.57,0.2580399619410086,0.2558529945001913,1642.0,36785.0
545.07,0.2576403695806681,0.25667395701900875,1659.0,36582.0
545.58,0.2567634308291719,0.2569428419192338,1686.0,36446.0
546.08,0.25758245400806584,0.25798723540167173,1641.0,36202.0
546.58,0.25729590982646056,0.2598006609204591,1630.0,35842.0
547.08,0.26014952743687403,0.2604277622507843,1637.0,35445.0
547.59,0.2624060794789018,0.26065008305587145,1631.0,35003.0
548.09,0.26032613434874863,0.2609934559899571,1664.0,34403.0
548.59,0.2612743671806808,0.2614846753227408,1623.0,34370.0
549.09,0.26652837457401096,0.26186766998295624,1586.0,33745.0
549.59,0.2643109752442606,0.2622000226284904,1604.0,33366.0
550.09,0.2598635776315394,0.26236113795732346,1709.0,33279.0
550.6,0.26019716017002803,0.26293898302945884,1676.0,33171.0
551.1,0.2624946473359026,0.2636260495931087,1703.0,32694.0
551.6,0.2611258564286155,0.2641128590056916,1782.0,32402.0
552.1,0.2634730538922156,0.2646517306804442,1729.0,32064.0
552.6,0.26401723276723277,0.26543697545647926,1654.0,32032.0
553.1,0.2661045850701023,0.2659052670308511,1663.0,31668.0
553.6,0.2681450328171796,0.26612027950905703,1711.0,31386.0
554.11,0.27139646869983947,0.2665681730711509,1700.0,31150.0
554.61,0.26969969199178645,0.2667654901075586,1721.0,31168.0
555.11,0.26771602539189016,0.26655818254955305,1649.0,30876.0
555.61,0.2648800759137463,0.2666619256970373,1614.0,30561.0
556.11,0.26464477211796245,0.2676279153288151,1651.0,29840.0
556.61,0.2656047920495542,0.26830794921659296,1666.0,29382.0
557.11,0.2654462242562929,0.26873929928793533,1679.0,29279.0
557.61,0.26194415718717684,0.2693521591124279,1618.0,29010.0
558.11,0.2671420165449448,0.27001299104124626,1622.0,28891.0
558.62,0.27780492913495775,0.27078380157194487,1652.0,28646.0
559.12,0.27819680757761794,0.2711906303374799,1686.0,28505.0
559.62,0.2740131927052101,0.272125465890804,1690.0,28349.0
560.12,0.2738446236368157,0.272836227600824,1718.0,28151.0
560.62,0.2714883952019306,0.2731979320663533,1650.0,28178.0
561.12,0.2723528774249485,0.272635700945668,1691.0,27681.0
561.62,0.2696730797049038,0.27259761884295747,1714.0,27652.0
562.12,0.27479457978953437,0.2730176101662753,1643.0,27748.0
562.62,0.26905177428737637,0.27340037882812546,1649.0,27504.0
563.12,0.2707590612002377,0.2744796499971962,1668.0,26928.0
563.62,0.27218261792810555,0.2749768448258936,1685.0,26372.0
564.12,0.277815986550512,0.27546342290617726,1682.0,26172.0
564.62,0.27821310593838827,0.27555820478209625,1665.0,26034.0
565.12,0.2776723102553175,0.2764802192212112,1636.0,25811.0
565.62,0.2822811068926377,0.27688398141565085,1654.0,25549.0
566.12,0.27732482571192246,0.27739192385408457,1635.0,25389.0
566.62,0.2745388605077409,0.27753749268968814,1592.0,25643.0
567.12,0.27574239854872423,0.27839226579682474,1694.0,25357.0
567.62,0.2782719186785261,0.2794740875315293,1689.0,25184.0
568.12,0.274796683144634,0.2794693146652115,1701.0,25084.0
568.62,0.2772620423124427,0.2801773858399476,1682.0,25099.0
569.12,0.2792716749065477,0.2809622787417387,1647.0,24879.0
569.62,0.2867608370097543,0.28189409874340843,1668.0,24707.0
570.12,0.288490527602363,0.2821991382805144,1671.0,24545.0
570.62,0.28223337822946004,0.2832101071408657,1743.0,24501.0
571.12,0.2844055374592834,0.28382299450817206,1682.0,24560.0
571.62,0.282387789525651,0.28389886807174936,1657.0,24307.0
572.12,0.2850605985654217,0.28362737160409884,1687.0,24258.0
572.62,0.2813223140495868,0.28329697888716915,1672.0,24200.0
573.12,0.28490637174814626,0.2834703282589567,1673.0,23871.0
573.61,0.28339091598550603,0.2837368443560632,1670.0,23734.0
574.11,0.28003041054232136,0.28385310012572035,1695.0,23676.0
574.61,0.284045872333249,0.28384669074104113,1626.0,23718.0
575.11,0.2851866004330659,0.28452120552387467,1640.0,23553.0
575.61,0.2839668719473349,0.2851640454427537,1664.0,23545.0
576.11,0.28707069843034944,0.28629723765795034,1659.0,23381.0
576.61,0.2835503472222222,0.2869435948947753,1698.0,23040.0
577.11,0.28499650471862986,0.2878876182713385,1676.0,22888.0
577.61,0.288067461877922,0.28846344101817684,1717.0,22887.0
578.11,0.29133477093693616,0.28912121361373383,1709.0,22723.0
578.6,0.2947228381374723,0.28900541269343394,1678.0,22550.0
579.1,0.28649398291057127,0.2896523404046292,1681.0,22353.0
579.6,0.29348610609888126,0.29082338725150636,1650.0,22168.0
580.1,0.290944827901449,0.29083256337514146,1688.0,21877.0
580.6,0.29054459790290543,0.29051272747553536,1694.0,21649.0
581.1,0.2859126892273506,0.28983448492214003,1708.0,21601.0
581.59,0.2900196243341744,0.2904056689198011,1640.0,21402.0
582.09,0.2967069731874014,0.2903566853302196,1645.0,20923.0
582.59,0.28815922311427333,0.29054286167179544,1699.0,20801.0
583.09,0.2881364119408753,0.28977780536032255,1705.0,20702.0
583.59,0.2879404126035184,0.2895157680481973,1672.0,20407.0
584.09,0.29220582288718155,0.28847604698462775,1668.0,19784.0
584.58,0.29299627020306673,0.2873488764516019,1645.0,19304.0
585.08,0.29280659131720715,0.28776812612827846,1648.0,18934.0
585.58,0.28289403478817626,0.28798045172344766,1692.0,18742.0
586.08,0.2832923161060979,0.2880888288632311,1638.0,18285.0
586.58,0.2796224136984798,0.2877370040998842,1680.0,18221.0
587.07,0.28543526785714285,0.2864254073559373,1705.0,17920.0
587.57,0.2923517198810392,0.28593411227274,1701.0,17821.0
588.07,0.2902596678925666,0.2859086445270431,1655.0,17946.0
588.57,0.28902418400135294,0.2854092262007921,1591.0,17739.0
589.06,0.2886875752537125,0.2862188495939085,1661.0,17441.0
589.56,0.27988030276359793,0.2858082992135979,1703.0,17043.0
590.06,0.28789364048523464,0.2856430390595931,1679.0,16322.0
590.56,0.28263935733120743,0.28527215349436363,1666.0,16307.0
591.05,0.2782981328435874,0.28445524881471335,1666.0,16335.0
591.55,0.2877186476296434,0.2838278929765582,1633.0,16179.0
592.05,0.2813297640540372,0.2835532314039385,1663.0,16063.0
592.54,0.29069911834099094,0.283766483225024,1624.0,16106.0
593.04,0.286550812240272,0.2839474159667567,1707.0,15882.0
593.54,0.28085513720485006,0.28413085685884426,1709.0,15670.0
594.04,0.28241401687216094,0.2840617858625512,1687.0,15410.0
594.53,0.27713368703740093,0.2848889234172614,1656.0,15267.0
595.03,0.2900261586960896,0.28398712422716743,1649.0,14909.0
595.53,0.2844486847485348,0.2840060325214115,1655.0,14674.0
596.02,0.28013254176446223,0.2845991974796051,1743.0,14486.0
596.52,0.2870279376667135,0.28477565886143175,1715.0,14246.0
597.02,0.2896011396011396,0.28514472615569497,1665.0,14040.0
597.51,0.2816811264400512,0.28498716460283835,1693.0,14062.0
598.01,0.2867398951827123,0.2847645026042833,1663.0,13929.0
598.51,0.28678678678678676,0.2857738048188146,1672.0,13986.0
599.0,0.28417863069042637,0.28649045006062335,1673.0,13861.0
599.5,0.2808243599800328,0.28663852323501227,1704.0,14023.0
600.0,0.2884505431675243,0.2869659985097962,1755.0,13992.0
600.49,0.2822220647629845,0.28668229482861934,1619.0,14113.0
600.99,0.29022556390977444,0.2864201639388137,1630.0,13965.0
601.48,0.294194390084801,0.2870300592740115,1639.0,13797.0
601.98,0.2910818713450292,0.2890543305930814,1645.0,13680.0
602.48,0.2849558791878901,0.2902112979759044,1653.0,13939.0
602.97,0.2839028583709435,0.2920281382210278,1683.0,13959.0
603.47,0.28416547788873037,0.2934467387006354,1717.0,14020.0
603.96,0.2902775840424048,0.2941840436331458,1660.0,14338.0
604.46,0.3010670731707317,0.29417110073114705,1717.0,14432.0
604.96,0.30002021699575443,0.2953561086967162,1613.0,14839.0
605.45,0.3003904672142184,0.29742682022176226,1665.0,14854.0
605.95,0.304411568705851,0.29874417377264345,1673.0,15006.0
606.44,0.30156743940990516,0.29989454169827107,1650.0,15184.0
606.94,0.29095244232504186,0.30004695781052515,1639.0,15518.0
607.43,0.29680595884358035,0.3005325231800692,1639.0,15842.0
607.93,0.30460997362140435,0.3007996820704764,1651.0,15922.0
608.42,0.29733901339754276,0.30132854487809485,1639.0,16197.0
608.92,0.30178126329868077,0.30250409925232485,1605.0,16449.0
609.42,0.3025912342932724,0.30472865197413534,1575.0,16633.0
609.91,0.3048758706911949,0.30561294999994537,1676.0,16797.0
610.41,0.30306205611829085,0.30658274062406227,1702.0,17178.0
610.9,0.309700196782035,0.3084383546693409,1651.0,17278.0
611.4,0.31332298315220514,0.3099048408158433,1650.0,17391.0
611.89,0.3131979695431472,0.3110622597015875,1646.0,17730.0
612.39,0.3056489391016809,0.31191544299660184,1700.0,18145.0
612.88,0.3143078798625734,0.31314039496273155,1688.0,18046.0
613.38,0.31589515385032835,0.31365867130824265,1681.0,18427.0
613.87,0.3164461247637051,0.31383009809565254,1690.0,18515.0
614.36,0.3141654231507141,0.3136315711101914,1659.0,18764.0
614.86,0.3134077036413387,0.31476310577145195,1715.0,19004.0
615.35,0.315311575779588,0.3155412405273056,1650.0,19273.0
615.85,0.31488296023714607,0.3160362170687082,1645.0,19566.0
616.34,0.3150372510263038,0.31657556893577693,1664.0,19731.0
616.84,0.3112126996885361,0.3175618569008257,1664.0,19906.0
617.33,0.3169642857142857,0.3190955412143458,1622.0,20160.0
617.83,0.3220892274211099,0.3204143265804722,1653.0,20218.0
618.32,0.3208449192643544,0.32213712599634386,1690.0,20499.0
618.82,0.3218396434343929,0.3240714577257495,1665.0,20417.0
619.31,0.3240283028012019,0.32565234440774393,1662.0,20634.0
619.8,0.328744546776539,0.32692848534555213,1593.0,20630.0
620.3,0.32849942944085203,0.3277893730518924,1622.0,21032.0
620.79,0.3321109543958627,0.3288881131016884,1648.0,21270.0
621.29,0.3343805683203601,0.32970181434162443,1702.0,21326.0
621.78,0.32702156650848097,0.330158768484,1691.0,21283.0
622.27,0.329725695092368,0.3298544030518162,1704.0,21436.0
622.77,0.33069810448451226,0.3306935531456487,1658.0,21630.0
623.26,0.33183231976231375,0.3308307280053992,1707.0,21541.0
623.75,0.3299766558337529,0.33080392814153436,1678.0,21847.0
624.25,0.3285978442249583,0.3314828026582399,1643.0,22173.0
624.74,0.3257008924547012,0.3311528127568812,1664.0,22186.0
625.24,0.3368909303791768,0.3321337085419994,1668.0,22206.0
625.73,0.33348270299336796,0.3332163643957123,1650.0,22316.0
626.22,0.33411256968171194,0.3346151443516648,1658.0,22244.0
626.72,0.3338103116755355,0.33617526879702736,1659.0,22363.0
627.21,0.32642579607878164,0.3385559097996657,1673.0,22391.0
627.7,0.3405070623356949,0.33849387506170353,1618.0,22443.0
628.2,0.34265887829944225,0.33888752586778237,1616.0,22769.0
628.69,0.3439644553932782,0.339320236751838,1703.0,22732.0
629.18,0.34419908867858395,0.33942100352092935,1648.0,22824.0
629.67,0.3495073024810839,0.33991742501477734,1619.0,22732.0
630.17,0.336270582999555,0.33983090840918817,1719.0,22470.0
630.66,0.33741921105415645,0.33975329699509577,1694.0,22435.0
631.15,0.3384396785222681,0.3388061793230575,1665.0,22521.0
631.65,0.33481797936645,0.33814114351785957,1670.0,22003.0
632.14,0.3313900110172604,0.3366031532764214,1686.0,21784.0
632.63,0.33964189627980335,0.3365779194220964,1677.0,21558.0
633.12,0.3418827641585187,0.3365191299059037,1702.0,21171.0
633.62,0.3344932786728954,0.3358835542067218,1695.0,20978.0
634.11,0.33754873062660457,0.3357551186455211,1680.0,21034.0
634.6,0.3341274000667016,0.336718577393358,1704.0,20989.0
635.09,0.3360182444563055,0.33618423638876493,1661.0,20609.0
635.59,0.3368313158922296,0.3353018089809007,1678.0,20488.0
636.08,0.3320839215304483,0.3351458005290599,1653.0,20543.0
636.57,0.33353362375444395,0.3341442486437894,1672.0,19971.0
637.06,0.3410245984956292,0.33444452872887687,1678.0,19676.0
637.56,0.33429848623387176,0.33473850685654316,1633.0,19686.0
638.05,0.3330584900798763,0.3349147344398957,1648.0,19405.0
638.54,0.3329331941544885,0.3351570653005642,1659.0,19160.0
639.03,0.32753321177389944,0.33442370828848794,1668.0,19195.0
639.52,0.33713020091757634,0.33420455915805664,1668.0,18963.0
640.02,0.33895802573296774,0.3345107039755003,1632.0,18964.0
640.51,0.3385935917257557,0.3350380684034044,1622.0,18757.0
641.0,0.3345072301371325,0.33565638571672934,1629.0,18741.0
641.49,0.32620005363368193,0.33601638817733026,1712.0,18645.0
641.98,0.33883310719131615,0.33573030218299393,1682.0,18425.0
642.47,0.3373599344083083,0.33572768261661284,1675.0,18295.0
642.97,0.3383321343589176,0.33556609544332816,1658.0,18071.0
643.46,0.3391163672877385,0.33500055339114176,1634.0,17926.0
643.95,0.33113323637990827,0.3353791650682402,1660.0,17878.0
644.44,0.334269340974212,0.3360051316928586,1699.0,17450.0
644.93,0.3389318300691579,0.33730901953564857,1693.0,17207.0
645.42,0.3369777199929082,0.3377824653740746,1724.0,16921.0
645.91,0.32885180961526916,0.33775741232441553,1689.0,16661.0
646.4,0.329986170404666,0.3379604800460181,1642.0,16631.0
646.9,0.3450927734375,0.33795414488863906,1657.0,16384.0
647.39,0.3503988128362085,0.3382632559380319,1653.0,16173.0
647.88,0.34306659274317747,0.3388414276451727,1666.0,16233.0
648.37,0.338865836791148,0.3395786353316553,1704.0,15906.0
648.86,0.33316391359593395,0.33959725967049903,1717.0,15740.0
649.35,0.33420598940042145,0.3392775186252484,1641.0,15661.0
649.84,0.3420229405630866,0.3380403574954949,1650.0,15344.0
650.33,0.3427594370643167,0.33766993581706706,1665.0,15206.0
650.82,0.3362238864800946,0.33844216063046095,1624.0,15222.0
651.31,0.33017241379310347,0.338698963049033,1661.0,15080.0
651.8,0.3418953629849939,0.33950288404990664,1615.0,14794.0
652.29,0.3380272015386729,0.33954107246627047,1678.0,14558.0
652.78,0.3393623759588993,0.33885471621607255,1714.0,14209.0
653.27,0.34658808492508697,0.3382657070481431,1626.0,14083.0
653.76,0.33573193778165433,0.339740090133188,1658.0,13758.0
654.25,0.34224519940915804,0.338691223990121,1650.0,13540.0
654.75,0.34240482472672445,0.338302452970284,1672.0,13265.0
655.24,0.33589587456233827,0.33779438038150644,1630.0,13138.0
655.73,0.3303337948007999,0.33694939053934403,1667.0,13002.0
656.22,0.3449162446435528,0.33767196577661485,1647.0,12835.0
656.71,0.3314067015543232,0.33804238866063063,1677.0,12803.0
657.2,0.3341394913403027,0.3378264341853762,1652.0,12818.0
657.69,0.33428165007112376,0.33777382945967355,1675.0,12654.0
658.17,0.3381381865034627,0.33834148835064903,1686.0,12418.0
658.66,0.34295769015436295,0.33698424173591657,1610.0,12503.0
659.15,0.3459494282493155,0.3378498221084004,1644.0,12418.0
659.64,0.3402452799741811,0.3382015414980471,1683.0,12394.0
660.13,0.3353698273053112,0.33725544750720193,1678.0,12276.0
660.62,0.3360103837105541,0.3359162170096773,1648.0,12327.0
661.11,0.33134377849622815,0.3346737944333438,1638.0,12063.0
661.6,0.3400625052791621,0.33347512892160347,1657.0,11839.0
662.09,0.3376566852367688,0.3324952807952126,1667.0,11488.0
662.58,0.3248207101626727,0.3323760670861657,1655.0,11434.0
663.07,0.32474588152821593,0.3323588003154107,1625.0,11412.0
663.56,0.3305334643910285,0.332171569152881,1654.0,11191.0
664.05,0.3339627731319126,0.3312594716357279,1626.0,11121.0
664.54,0.33044679871027177,0.3296067841178576,1656.0,10855.0
665.03,0.3341776902148419,0.32854165282952197,1667.0,10659.0
665.51,0.33583771600300527,0.32842828752464887,1655.0,10648.0
666.0,0.32947146687093065,0.3276284479984535,1693.0,10444.0
666.49,0.33094153010763117,0.3262020199314934,1679.0,10313.0
666.98,0.3211298100580651,0.3257762418771635,1665.0,10161.0
667.47,0.31416939727931686,0.32432056408667287,1709.0,10071.0
667.96,0.3236122284794851,0.3223952420825121,1683.0,9944.0
668.45,0.3225350691290746,0.32251431218158516,1662.0,9909.0
668.94,0.3196984924623116,0.3214494990241228,1677.0,9950.0
669.42,0.3261890181669729,0.3215828948299104,1681.0,9798.0
669.91,0.31962091230993545,0.32228552031937013,1693.0,9602.0
670.4,0.31658449596139726,0.3213621353092594,1718.0,9533.0
670.89,0.33066216786166175,0.3196090167243227,1717.0,9484.0
671.38,0.3202933985330073,0.3206330800403494,1651.0,9407.0
671.87,0.322463768115942,0.31986702703477815,1680.0,9108.0
672.35,0.32119565217391305,0.3197077717254591,1670.0,9200.0
672.84,0.3143783783783784,0.3210027133944136,1695.0,9250.0
673.33,0.30500388327970707,0.32115621939852246,1743.0,9013.0
673.82,0.3299391256225789,0.32007539531516604,1653.0,9035.0
674.31,0.31852848811126067,0.32054844967270585,1682.0,8916.0
674.79,0.31802835921674544,0.3205825515100293,1710.0,8886.0
675.28,0.32953391265094234,0.32136019708282293,1643.0,8861.0
675.77,0.33219722790274936,0.3224238568794099,1613.0,8802.0
676.26,0.3094851576994434,0.3205482782523873,1675.0,8624.0
676.75,0.32719431169133933,0.31981199385843917,1646.0,8579.0
677.23,0.32153667054714785,0.32007872750633415,1629.0,8590.0
677.72,0.3221548341063147,0.31906714522289714,1687.0,8409.0
678.21,0.3156404812455768,0.3167719434561531,1652.0,8478.0
678.7,0.3111833393523534,0.3172575867474865,1673.0,8307.0
679.18,0.31116564417177917,0.31565570197824727,1657.0,8150.0
679.67,0.32069569569569567,0.31429295744266766,1669.0,7992.0
680.16,0.31941808981657177,0.3146977220222256,1656.0,7905.0
680.64,0.30924521023530926,0.315391738413797,1699.0,7777.0
681.13,0.31434159061277706,0.3158641340018695,1674.0,7670.0
681.62,0.31117546399894697,0.31708567456083336,1639.0,7597.0
682.11,0.3079092251913522,0.3177243533945795,1668.0,7447.0
682.59,0.326202479901894,0.31803972259673874,1640.0,7339.0
683.08,0.3225806451612903,0.3198772983474014,1651.0,7533.0
683.57,0.31590729523307876,0.3210330145612521,1646.0,7594.0
684.05,0.32338104976141785,0.32165032664500603,1734.0,7335.0
684.54,0.3270824840331567,0.32145136725420154,1696.0,7359.0
685.03,0.3225717818381646,0.32123603938277356,1648.0,7279.0
685.51,0.3276209677419355,0.3211590448254923,1695.0,6944.0
686.0,0.32589875275128394,0.32252884161797385,1695.0,6815.0
686.49,0.3173485848364863,0.323098286913743,1669.0,6819.0
686.97,0.3059196312833069,0.32384737978026856,1659.0,6943.0
687.46,0.3240492011876149,0.32362646906906267,1661.0,7073.0
687.95,0.32181069958847736,0.3228740451980128,1657.0,7290.0
688.43,0.32960526315789473,0.3229391438149717,1623.0,7600.0
688.92,0.3290755027191096,0.32441713115365034,1673.0,7907.0
689.4,0.3345734126984127,0.32700450443859136,1664.0,8064.0
689.89,0.320362674726105,0.32592262572799613,1683.0,7941.0
690.38,0.32009672903143693,0.3266188726270478,1631.0,7857.0
690.86,0.32654973892087297,0.3263814232343353,1683.0,7469.0
691.35,0.33212845822327264,0.32712078421987173,1701.0,7193.0
691.83,0.33179336413271737,0.3247401676437764,1679.0,7143.0
692.32,0.3132304140816621,0.3218438442593093,1691.0,6931.0
692.81,0.3287731685789938,0.3195768510367335,1636.0,6798.0
693.29,0.3272307692307692,0.31593631307407055,1672.0,6500.0
693.78,0.33646911257447476,0.3128634418018251,1662.0,6378.0
694.26,0.3107672469374597,0.309787847515267,1688.0,6204.0
694.75,0.291399440881434,0.30894918987369885,1665.0,6081.0
695.23,0.2974267968056788,0.3052708883538036,1699.0,5635.0
695.72,0.2901443592942434,0.30330677405467793,1707.0,5611.0
696.2,0.30139974550081805,0.29923868814498933,1621.0,5501.0
696.69,0.30103742126713595,0.29885127414055407,1663.0,5398.0
697.17,0.30484383766598094,0.29856795437182987,1671.0,5347.0
697.66,0.29199015338004164,0.29574295944992407,1705.0,5281.0
698.15,0.3075896262395118,0.29769572983017184,1701.0,5244.0
698.63,0.29578825347758886,0.29790766143844777,1694.0,5176.0
699.12,0.3068931068931069,0.2954154037344587,1658.0,5005.0
699.6,0.2885662431941924,0.29321384825068886,1704.0,4959.0
700.09,0.26917684758662125,0.29361779526611,1696.0,4993.0
700.57,0.30967206309672063,0.293933598997299,1658.0,4818.0
701.05,0.3035190615835777,0.29607451887247,1665.0,4774.0
701.54,0.27611484422724497,0.2958030475423279,1716.0,4911.0
702.02,0.2828282828282828,0.2974104301613302,1667.0,4950.0
702.51,0.2960296235342522,0.3008541911858006,1665.0,4861.0
702.99,0.3107476635514019,0.3002776604643004,1678.0,4708.0
703.48,0.31719745222929935,0.2990735428712069,1658.0,4710.0
703.96,0.3041783935916865,0.30130395568168394,1673.0,4619.0
704.45,0.3046400693842151,0.30309431435827017,1659.0,4612.0
704.93,0.3036144578313253,0.3034422886685381,1682.0,4565.0
705.42,0.3039067558817181,0.30331229638916246,1689.0,4633.0
705.9,0.29147788565264293,0.29906084826768176,1660.0,4635.0
706.38,0.2984189723320158,0.29650197434576664,1625.0,4554.0
706.87,0.30073186959414505,0.29670556128773456,1639.0,4509.0
707.35,0.2995093666369313,0.2969624819097705,1674.0,4484.0
707.84,0.3094477407576449,0.2972009835513751,1661.0,4382.0
708.32,0.27468297101449274,0.2984941961780059,1657.0,4416.0
708.8,0.27858965437253536,0.29740786491621285,1696.0,4311.0
709.29,0.3066759388038943,0.2963579337707518,1648.0,4314.0
709.77,0.30618366405168435,0.2983426382577169,1647.0,4334.0
710.25,0.30629177229776444,0.2978738109577968,1617.0,4339.0
710.74,0.3044100119189511,0.30008493474569603,1650.0,4195.0
711.22,0.2875556597140848,0.30066799829394975,1722.0,4267.0
711.71,0.29023255813953486,0.2991772585292898,1638.0,4300.0
712.19,0.31935641150658217,0.2985729173695631,1621.0,4102.0
712.67,0.3047594677584442,0.29845885772097364,1657.0,3908.0
713.16,0.296794208893485,0.2962572522292529,1673.0,3868.0
713.64,0.28442028985507245,0.29529962939154075,1682.0,3864.0
714.12,0.2917685411572942,0.2934931223460602,1664.0,3681.0
714.61,0.30014025245441794,0.29140058077913555,1641.0,3565.0
715.09,0.3051511758118701,0.2920547709895925,1623.0,3572.0
715.57,0.2823939570017432,0.2910724736197025,1674.0,3442.0
716.05,0.2779794313369631,0.29033667505535776,1679.0,3306.0
716.54,0.27216748768472904,0.2873684723391195,1668.0,3248.0
717.02,0.2984309958373359,0.28523480159884756,1641.0,3123.0
717.5,0.3113013698630137,0.28313750275805993,1695.0,2920.0
717.99,0.28697123519458545,0.2828292795268732,1684.0,2955.0
718.47,0.2770623042116255,0.28533073759078165,1730.0,2873.0
718.95,0.26208651399491095,0.28672731098401805,1715.0,2751.0
719.43,0.2788035450516987,0.2824063500803179,1637.0,2708.0
719.92,0.28417818740399386,0.28167174189883165,1633.0,2604.0
720.4,0.279311724689876,0.284186117352679,1654.0,2499.0
720.88,0.3029940119760479,0.2848406117524183,1663.0,2505.0
721.36,0.2861332216170926,0.28339976221051233,1722.0,2387.0
721.85,0.2552213868003342,0.2830577218815877,1680.0,2394.0
722.33,0.3039552880481513,0.2801193551959828,1649.0,2326.0
722.81,0.31211498973305957,0.2819613396268062,1615.0,2435.0
723.29,0.2836072482090181,0.28133877047289735,1645.0,2373.0
723.77,0.2476780185758514,0.28172832462950065,1660.0,2261.0
724.26,0.2753831417624521,0.28667196541714784,1702.0,2088.0
724.74,0.2547945205479452,0.2858285300884768,1683.0,2190.0
725.22,0.29773156899810965,0.2815515549246947,1649.0,2116.0
725.7,0.2967683204369595,0.28447795881666416,1638.0,2197.0
726.18,0.2900287631831256,0.2882887859913371,1670.0,2086.0
726.67,0.3046577946768061,0.2900428755611897,1658.0,2104.0
727.15,0.2955209347614411,0.29725573119870285,1679.0,2054.0
727.63,0.2693452380952381,0.30283776555572245,1731.0,2016.0
728.11,0.31287128712871287,0.3051429154940085,1660.0,2020.0
728.59,0.2857862903225806,0.30334465012670464,1679.0,1984.0
729.07,0.29292403746097817,0.30461235456642094,1644.0,1922.0
729.56,0.3269230769230769,0.30497479100480673,1622.0,1924.0
730.04,0.35355191256830604,0.3094369152399757,1637.0,1830.0
730.52,0.31981981981981983,0.304147506025394,1669.0,1776.0
731.0,0.27204610951008645,0.304977262978202,1666.0,1735.0
731.48,0.31733483907396953,0.3044028079500529,1690.0,1771.0
731.96,0.29914529914529914,0.30101882382163736,1672.0,1755.0
732.44,0.3139664804469274,0.2968840117117262,1613.0,1790.0
732.92,0.25997719498289623,0.29309073095280774,1699.0,1754.0
733.4,0.29408385985066055,0.2945178258486948,1692.0,1741.0
733.88,0.28717948717948716,0.292684283083146,1650.0,1755.0
734.37,0.29308323563892147,0.29649500069336854,1662.0,1706.0
734.85,0.3122037914691943,0.2971454422497222,1698.0,1688.0
735.33,0.28188701223063484,0.3015745520197253,1667.0,1717.0
735.81,0.2863170584689572,0.3033176811861744,1680.0,1659.0
736.29,0.29899941141848146,0.30550769266723066,1650.0,1699.0
736.77,0.3372524752475248,0.3066949218352318,1648.0,1616.0
737.25,0.32047089601046436,0.3087212959350656,1715.0,1529.0
737.73,0.3042682926829268,0.31285449444814983,1660.0,1640.0
738.21,0.3115151515151515,0.3212760344072351,1637.0,1650.0
738.69,0.30907960199004975,0.32798888314592106,1622.0,1608.0
739.17,0.30495552731893266,0.3283861982952633,1669.0,1574.0
739.65,0.33246753246753247,0.3291504435189745,1655.0,1540.0
740.13,0.3232189973614776,0.329623685122404,1696.0,1516.0
740.61,0.37053245805981033,0.3299029157851963,1685.0,1371.0
741.09,0.36612789880534086,0.3303812484210823,1647.0,1423.0
741.57,0.3412256267409471,0.3382632307905931,1669.0,1436.0
742.05,0.32811334824757643,0.3433434737415585,1695.0,1341.0
742.53,0.30900070871722185,0.34526193681720213,1655.0,1411.0
743.01,0.3143074581430746,0.3409414237439538,1672.0,1314.0
743.49,0.31386292834890966,0.33791128158219313,1673.0,1284.0
743.97,0.3837753510140406,0.3391896266236809,1670.0,1282.0
744.45,0.3832699619771863,0.34301897216745625,1660.0,1315.0
744.93,0.3424036281179138,0.3445613660321854,1645.0,1323.0
745.41,0.32732732732732733,0.34757045424277416,1669.0,1332.0
745.89,0.33582647718773373,0.3484307950010795,1668.0,1337.0
746.37,0.3540090771558245,0.3386647606009377,1648.0,1322.0
746.85,0.3664068036853296,0.33087055128846504,1610.0,1411.0
747.33,0.3244246473645137,0.3326412688090836,1654.0,1347.0
747.8,0.34439834024896265,0.33284224552628033,1619.0,1446.0
748.28,0.32246633593196317,0.3325929311408403,1655.0,1411.0
748.76,0.2861150070126227,0.33185772109967643,1701.0,1426.0
749.24,0.305327868852459,0.3240779771392497,1694.0,1464.0
749.72,0.3601108033240997,0.32097241796207493,1643.0,1444.0
750.2,0.32933709449929477,0.3194752922705121,1665.0,1418.0
750.68,0.3333333333333333,0.3229475497153557,1660.0,1461.0
751.16,0.34665697674418605,0.3250112901716497,1671.0,1376.0
751.64,0.2886093640810622,0.3241106103098152,1689.0,1431.0
752.11,0.29336905559276627,0.32104299976298023,1705.0,1493.0
752.59,0.3294270833333333,0.3203053200897257,1641.0,1536.0
753.07,0.35718891038039974,0.31451573270584143,1615.0,1551.0
753.55,0.3067524115755627,0.3132928734019879,1666.0,1555.0
754.03,0.2963210702341137,0.3149359157737226,1697.0,1495.0
754.51,0.32943469785575047,0.3202019798722897,1631.0,1539.0
754.98,0.3219602977667494,0.3209441759555681,1647.0,1612.0
755.46,0.2754374594944913,0.3177102145893299,1713.0,1543.0
755.94,0.3344283837056505,0.3202751968954608,1675.0,1522.0
756.42,0.3050397877984085,0.32314148422015476,1706.0,1508.0
756.9,0.3460296965784377,0.32163028922395104,1668.0,1549.0
757.37,0.33684904416611733,0.3212068346981122,1639.0,1517.0
757.85,0.32484929671801743,0.3269514984521671,1667.0,1493.0
758.33,0.3324022346368715,0.324874480260051,1676.0,1432.0
758.81,0.3249839434810533,0.324464335260371,1690.0,1557.0
759.29,0.31432274789371356,0.32144031297094827,1646.0,1543.0
759.76,0.3177257525083612,0.32135487628554077,1626.0,1495.0
760.24,0.3328840970350404,0.3226122779020826,1656.0,1484.0
760.72,0.31365820178448867,0.32014633265361847,1653.0,1457.0
761.2,0.30093833780160856,0.32041736186441044,1664.0,1492.0
761.67,0.3157894736842105,0.3218949479340832,1633.0,1558.0
762.15,0.3359946773120426,0.3234125281236616,1628.0,1503.0
762.63,0.3374233128834356,0.32383128352919194,1684.0,1467.0
763.11,0.307742782152231,0.3227198881295041,1662.0,1524.0
763.58,0.3276942355889724,0.32212881678028243,1677.0,1596.0
764.06,0.3290986085904416,0.32376865520796677,1631.0,1653.0
764.54,0.3329015544041451,0.32075280139370976,1682.0,1544.0
765.01,0.3370716510903427,0.3150377583373162,1655.0,1605.0
765.49,0.30254424778761063,0.3102255708745342,1631.0,1808.0
765.97,0.2950276243093923,0.30824679319536963,1669.0,1810.0
766.45,0.3321878579610538,0.30542049779593555,1626.0,1746.0
766.92,0.3058361391694725,0.30025893018560146,1650.0,1782.0
767.4,0.2802728823194997,0.29932688469379204,1718.0,1759.0
767.88,0.25962090752441125,0.3006736683742455,1686.0,1741.0
768.35,0.3079064587973274,0.30406876817608536,1654.0,1796.0
768.83,0.3008356545961003,0.3012720222393,1643.0,1795.0
769.31,0.28128587830080365,0.3058828876197179,1673.0,1742.0
769.78,0.3277511961722488,0.31289619901300214,1692.0,1672.0
770.26,0.316012084592145,0.32164787196336253,1673.0,1655.0
770.73,0.32897862232779096,0.32141448266660577,1680.0,1684.0
771.21,0.3042203985932005,0.3249823166980899,1673.0,1706.0
771.69,0.35194479297365117,0.32725271556845287,1625.0,1594.0
772.16,0.3504059962523423,0.3308719241078789,1638.0,1601.0
772.64,0.3471376370280146,0.3275777752785479,1665.0,1642.0
773.11,0.30557256582976117,0.3230533630822386,1711.0,1633.0
773.59,0.33651399491094147,0.32710654188181065,1689.0,1572.0
774.07,0.3039898670044332,0.325581127332647,1661.0,1579.0
774.54,0.3639432815665091,0.32362547554645893,1650.0,1481.0
775.02,0.2830705962988348,0.3243424234541444,1674.0,1459.0
775.49,0.28373450036469733,0.32724024356948817,1694.0,1371.0
775.97,0.34475218658892126,0.32916576715531715,1628.0,1372.0
776.45,0.3366906474820144,0.33274491333965095,1644.0,1390.0
776.92,0.33084947839046197,0.32739806069166616,1664.0,1342.0
777.4,0.3543071161048689,0.33071364257121666,1657.0,1335.0
777.87,0.3345507669831994,0.3337756376029105,1650.0,1369.0
778.35,0.3557692307692308,0.33277183567972674,1660.0,1248.0
778.82,0.33978132884777124,0.332090681121508,1700.0,1189.0
779.3,0.31047475508666167,0.33632549579306403,1669.0,1327.0
779.77,0.31622641509433963,0.3359737534261349,1644.0,1325.0
780.25,0.3143544506816359,0.3402576625964766,1675.0,1247.0
780.72,0.3347141673570837,0.3337233782967056,1655.0,1207.0
781.2,0.3298791018998273,0.3269473179507887,1649.0,1158.0
781.67,0.37319762510602206,0.33421599364487165,1625.0,1179.0
782.15,0.3507896924355777,0.33158249165089293,1649.0,1203.0
782.62,0.3773898586866168,0.3365404892056802,1654.0,1203.0
783.1,0.2904263877715205,0.3401027394399445,1703.0,1243.0
783.57,0.27202072538860106,0.3423933438388212,1743.0,1158.0
784.05,0.38316151202749144,0.3432139987855245,1687.0,1164.0
784.52,0.28989139515455303,0.3378969343038715,1666.0,1197.0
785.0,0.3639344262295082,0.33814381415959144,1648.0,1220.0
785.47,0.370336669699727,0.34259632101350734,1699.0,1099.0
785.94,0.35278514588859416,0.3515294304503838,1711.0,1131.0
786.42,0.38140417457305503,0.34398953495539725,1708.0,1054.0
786.89,0.2976190476190476,0.34895044169341094,1699.0,1176.0
787.37,0.37985865724381623,0.3520090538649806,1648.0,1132.0
787.84,0.33495145631067963,0.35346335940359896,1636.0,1236.0
788.32,0.3613518197573657,0.358367493216566,1682.0,1154.0
788.79,0.30776255707762556,0.35784986554315057,1700.0,1095.0
789.26,0.33950046253469013,0.3684060150375601,1699.0,1081.0
789.74,0.39452054794520547,0.3656413882512316,1661.0,1095.0
790.21,0.3848797250859107,0.3704701597576401,1657.0,1164.0
790.69,0.4018264840182648,0.3755284330273318,1672.0,1095.0
791.16,0.3762278978388998,0.3763311246879903,1708.0,1018.0
791.63,0.4031805425631431,0.3749304669575692,1648.0,1069.0
792.11,0.35221238938053095,0.365629165931893,1648.0,1130.0
792.58,0.3832391713747646,0.36389849453105616,1672.0,1062.0
793.05,0.41193455245428295,0.3548220892836656,1653.0,1039.0
793.53,0.3157894736842105,0.3555661898800888,1666.0,1083.0
794.0,0.3254938852304798,0.34775353519180907,1656.0,1063.0
794.47,0.3015075376884422,0.3548578776491048,1702.0,995.0
794.95,0.3675730110775428,0.36545222974239755,1660.0,993.0
795.42,0.31106243154435925,0.3614016316398264,1666.0,913.0
795.89,0.383668903803132,0.3686105630592841,1660.0,894.0
796.37,0.3250539956803456,0.37654602302108464,1690.0,926.0
796.84,0.4232558139534884,0.3866208331620149,1671.0,860.0
797.31,0.4891826923076923,0.3872811868632197,1644.0,832.0
797.79,0.37142857142857144,0.4002664303669795,1691.0,840.0
798.26,0.3878787878787879,0.4038004770683263,1692.0,825.0
798.73,0.40484848484848485,0.40994049582698494,1706.0,825.0
799.2,0.40225563909774437,0.40243751627132074,1674.0,798.0
799.68,0.37417654808959155,0.38607097117848255,1713.0,759.0
800.15,0.4409148665819568,0.384922511794729,1660.0,787.0
800.62,0.4190093708165997,0.39016755481754983,1672.0,747.0
801.09,0.38645418326693226,0.3923317129552178,1666.0,753.0
801.57,0.34822601839684625,0.39001623410012143,1659.0,761.0
802.04,0.3255172413793103,0.3915766814809433,1675.0,725.0
802.51,0.3599439775910364,0.3860840959216488,1689.0,714.0
802.98,0.4403292181069959,0.3857512061772669,1647.0,729.0
803.46,0.42649006622516555,0.38710578785057376,1642.0,755.0
803.93,0.37910085054678005,0.38759475871118576,1636.0,823.0
804.4,0.3897810218978102,0.3930879487079971,1677.0,685.0
804.87,0.385989010989011,0.3989197659709848,1653.0,728.0
805.34,0.4156804733727811,0.4031470559605878,1680.0,676.0
805.82,0.4,0.40369053760098206,1687.0,635.0
806.29,0.35311572700296734,0.4144209359299898,1680.0,674.0
806.76,0.380449141347424,0.42317010646748154,1669.0,757.0
807.23,0.4182621502209131,0.42077507180091783,1620.0,679.0
807.7,0.4826021180030257,0.42019801545463076,1617.0,661.0
808.17,0.431924882629108,0.41663461256538514,1675.0,639.0
808.65,0.486404833836858,0.4168018467724668,1655.0,662.0
809.12,0.4772727272727273,0.4245902659710577,1730.0,616.0
809.59,0.36203866432337434,0.42984503023333553,1704.0,569.0
810.06,0.4099099099099099,0.42609462235460155,1668.0,666.0
810.53,0.36436597110754415,0.43065587785209003,1693.0,623.0
811.0,0.35478806907378335,0.42238424692742066,1668.0,637.0
811.47,0.4583333333333333,0.4178840658336141,1627.0,600.0
811.94,0.4708097928436911,0.4330746217120336,1644.0,531.0
812.42,0.44509803921568625,0.41821428398737426,1674.0,510.0
812.89,0.47753743760399336,0.4174010965458311,1632.0,601.0
813.36,0.4036885245901639,0.43280986360294976,1700.0,488.0
813.83,0.43227091633466136,0.43725585987855503,1701.0,502.0
814.3,0.5139442231075697,0.43716283240141485,1658.0,502.0
814.77,0.2613065326633166,0.44396881795353044,1722.0,398.0
815.24,0.356234096692112,0.4453717006991552,1729.0,393.0
815.71,0.5088757396449705,0.466293170820784,1637.0,507.0
816.18,0.5027932960893855,0.4705660791873178,1696.0,358.0
816.65,0.46987951807228917,0.46734067096106785,1678.0,415.0
817.12,0.5131578947368421,0.48653375870193044,1709.0,380.0
817.59,0.491566265060241,0.5005038449676786,1680.0,415.0
818.06,0.6129032258064516,0.5072249666553554,1634.0,403.0
818.53,0.475,0.5099676150683948,1690.0,320.0
819.0,0.48169014084507045,0.5173437530367271,1691.0,355.0
819.47,0.45323741007194246,0.519308803458056,1681.0,417.0
819.94,0.4959349593495935,0.5248319799076969,1671.0,369.0
820.41,0.5760869565217391,0.5160691298545242,1674.0,368.0
820.88,0.5302197802197802,0.5326174682231043,1675.0,364.0
821.35,0.543640897755611,0.5422890711051783,1678.0,401.0
821.82,0.5328083989501312,0.5516712124509252,1691.0,381.0
822.29,0.5467980295566502,0.5685712230094724,1651.0,406.0
822.76,0.5252747252747253,0.5624611649594783,1649.0,455.0
823.23,0.6404833836858006,0.5721688457301513,1649.0,331.0
823.7,0.5784061696658098,0.5753723235221577,1635.0,389.0
824.17,0.5470588235294118,0.5719347438152322,1657.0,340.0
824.64,0.6649350649350649,0.5782159018205282,1655.0,385.0
825.11,0.5149863760217984,0.6023755458574729,1664.0,367.0
825.58,0.6272965879265092,0.6001958943575798,1639.0,381.0
826.05,0.5756756756756757,0.6162807788236635,1644.0,370.0
826.52,0.49843260188087773,0.6290827829060536,1648.0,319.0
826.99,0.6096096096096096,0.6280965227893587,1656.0,333.0
827.46,0.7668711656441718,0.6393251579144515,1630.0,326.0
827.93,0.6186868686868687,0.6545954991218007,1624.0,396.0
828.39,0.7392550143266475,0.6746341091604107,1660.0,349.0
828.86,0.6750788643533123,0.6794204786019525,1660.0,317.0
829.33,0.6550724637681159,0.674588549899056,1612.0,345.0
829.8,0.6272727272727273,0.6640171358139778,1695.0,220.0
830.27,0.78,0.6398994529613552,1661.0,250.0
830.74,0.7760617760617761,0.6171739515286905,1665.0,259.0
831.21,0.5462962962962963,0.6400615453193479,1644.0,324.0
831.68,0.5612903225806452,0.6517327221790508,1669.0,310.0
832.14,0.6611570247933884,0.6396492262758124,1643.0,242.0
832.61,0.37751004016064255,0.6242907357097747,1662.0,249.0
833.08,0.512,0.6150439331035971,1677.0,250.0
833.55,0.903954802259887,0.6493031923628564,1684.0,177.0
834.02,0.7717842323651453,0.650516817447449,1649.0,241.0
834.49,0.5064377682403434,0.6486318841988795,1684.0,233.0
834.95,0.6264150943396226,0.6598056113656109,1646.0,265.0
835.42,0.68359375,0.6709987737587733,1663.0,256.0
835.89,0.8888888888888888,0.6498340627635539,1698.0,135.0
836.36,0.5734265734265734,0.6248468745868003,1666.0,286.0
836.83,0.6423076923076924,0.64211354552396,1664.0,260.0
837.29,0.489247311827957,0.6760903935779204,1675.0,186.0
837.76,0.6239316239316239,0.68866125113606,1660.0,234.0
838.23,0.6923076923076923,0.6676456654145919,1692.0,169.0
838.7,0.5219123505976095,0.670604515609623,1652.0,251.0
839.16,0.6791044776119403,0.6684427118960952,1663.0,268.0
839.63,0.966183574879227,0.7124828048339026,1642.0,207.0
840.1,0.8093023255813954,0.723619054205446,1673.0,215.0
840.57,0.6787330316742082,0.7378053704018124,1688.0,221.0
841.03,0.6030150753768844,0.7505566640776835,1682.0,199.0
841.5,0.6206896551724138,0.7375757937812784,1668.0,232.0
841.97,0.9296482412060302,0.7309574362933557,1669.0,199.0
842.44,0.7352941176470589,0.7285218273911303,1642.0,238.0
842.9,0.8341708542713567,0.7260620580582958,1666.0,199.0
843.37,0.6494252873563219,0.7997228146715508,1697.0,174.0
843.84,0.5492957746478874,0.8300515099730228,1657.0,213.0
844.3,0.9,0.8249847750243943,1665.0,180.0
844.77,0.7849462365591398,0.833169648973974,1647.0,186.0
845.24,0.6541353383458647,0.8302259363279036,1710.0,133.0
845.7,1.3396226415094339,0.8494939339080609,1719.0,106.0
846.17,0.9239766081871345,0.860543737886571,1690.0,171.0
846.64,0.8789808917197452,0.8301182059716774,1691.0,157.0
847.1,0.8171428571428572,0.8402722309644121,1657.0,175.0
847.57,0.8047337278106509,0.8489327712038998,1694.0,169.0
848.04,0.8421052631578947,0.7824346218854922,1657.0,209.0
848.5,0.6597938144329897,0.7457661277334454,1646.0,194.0
848.97,0.5957446808510638,0.7564887282166433,1669.0,188.0
849.43,0.8864864864864865,0.7994935436259529,1649.0,185.0
849.9,0.7407407407407407,0.838318416458923,1622.0,216.0
850.37,0.6746411483253588,0.850599118213309,1669.0,209.0
850.83,0.5572916666666666,0.8785221757944003,1661.0,192.0
851.3,0.9862068965517241,0.900868611664096,1683.0,145.0
851.76,1.247191011235955,0.9292787865448592,1730.0,89.0
852.23,1.1929824561403508,0.9792787865448593,1677.0,114.0
852.7,0.9649122807017544,0.9955710168899883,1635.0,171.0
853.16,0.9390243902439024,0.9961870278882964,1644.0,164.0
853.63,0.8192090395480226,0.9640436109603966,1643.0,177.0
854.09,1.1705882352941177,0.9367203431701345,1646.0,170.0
854.56,1.2407407407407407,0.9092459969271687,1640.0,162.0
855.02,0.8375634517766497,0.9127547688569932,1639.0,197.0
855.49,0.5634517766497462,0.9272733824641818,1660.0,197.0
855.96,0.6647727272727273,0.9567448835726707,1660.0,176.0
856.42,0.9739583333333334,0.9311954940055231,1640.0,192.0
856.89,0.9182389937106918,0.8973276054984594,1641.0,159.0
857.35,1.0,0.8767896511253922,1651.0,143.0
857.82,1.0842105263157895,0.9196314653303361,1680.0,95.0
858.28,1.1139240506329113,0.8913564397940745,1669.0,79.0
858.75,0.9150943396226415,0.8608210715770204,1640.0,106.0
859.21,0.9020618556701031,0.8324118063522926,1633.0,194.0
859.68,0.632183908045977,0.7757188929664658,1642.0,174.0
860.14,0.991869918699187,0.7389396313796631,1650.0,123.0
860.61,0.38202247191011235,0.7352395340086797,1709.0,89.0
861.07,0.6686046511627907,0.7204424288135387,1607.0,172.0
861.53,0.6341463414634146,0.7117838622941475,1678.0,82.0
862.0,0.4330708661417323,0.705303060142032,1682.0,127.0
862.46,0.7164179104477612,0.6627827349387799,1643.0,134.0
862.93,1.0769230769230769,0.7327772090592443,1663.0,104.0
863.39,0.7671232876712328,0.7511626455823094,1589.0,219.0
863.86,0.8154761904761905,0.806939930627887,1628.0,168.0
864.32,0.5673758865248227,0.9173365477174176,1657.0,141.0
864.78,0.5666666666666667,0.909772426575554,1661.0,120.0
865.25,1.0819672131147542,0.9120801188832464,1662.0,122.0
865.71,0.8524590163934426,0.9520344567827898,1682.0,122.0
866.18,1.1919191919191918,0.9421631383132055,1664.0,99.0
866.64,1.537037037037037,0.9941557083908819,1692.0,54.0
867.1,0.6407766990291263,1.0946318988670725,1689.0,103.0
867.57,1.1,1.162625653746073,1669.0,90.0
868.03,1.1666666666666667,1.1453042804086155,1662.0,114.0
868.5,0.7167630057803468,1.1067093761420694,1622.0,173.0
868.96,1.0873015873015872,1.0895441339768275,1621.0,126.0
869.42,1.5714285714285714,1.242653964073915,1716.0,63.0
869.89,1.7619047619047619,1.2682975284303506,1703.0,63.0
870.35,0.6792452830188679,1.2394215594381026,1669.0,106.0
870.81,0.8059701492537313,1.2961543497691588,1670.0,134.0
871.28,1.3653846153846154,1.4091633214737824,1674.0,52.0
871.74,2.171875,1.3573301988441997,1648.0,64.0
872.2,1.3564356435643565,1.2676427901383862,1634.0,101.0
872.67,0.877906976744186,1.3282896904079278,1624.0,172.0
873.13,1.2840909090909092,1.3407961237584167,1685.0,88.0
873.59,2.217391304347826,1.3951667531290461,1707.0,46.0
874.05,1.0530973451327434,1.2481779286257348,1642.0,113.0
874.52,0.8650306748466258,1.163679402437238,1620.0,163.0
874.98,1.2857142857142858,1.1335158234068874,1678.0,70.0
875.44,0.9310344827586207,1.0908210182120823,1638.0,116.0
875.91,1.9090909090909092,0.9030818877772997,1643.0,55.0
876.37,0.7019867549668874,0.8463435818354539,1621.0,151.0
876.83,0.5114503816793893,0.926507181017458,1690.0,131.0
877.29,0.576271186440678,0.8994063406813235,1699.0,118.0
877.76,0.8571428571428571,0.9053127933955604,1693.0,98.0
878.22,0.34,0.8376037024864694,1734.0,50.0
878.68,0.4857142857142857,0.8731901509567229,1676.0,105.0
879.14,1.6666666666666667,0.9347316799529631,1686.0,60.0
879.6,1.0147058823529411,1.0489355472243882,1614.0,136.0
880.07,0.9900990099009901,1.118393675303206,1657.0,101.0
880.53,1.232,1.2799160633629074,1646.0,125.0
880.99,1.0578512396694215,1.5619001903470344,1681.0,121.0
881.45,1.126865671641791,1.6241224125692568,1661.0,134.0
881.91,1.7183098591549295,1.671136672818811,1657.0,71.0
882.38,1.5517241379310345,2.8121267718287117,1663.0,87.0
882.84,1.955223880597015,4.408926771828711,1676.0,67.0
883.3,3.3055555555555554,4.394605062495916,1689.0,36.0
883.76,2.2888888888888888,4.37125182866507,1703.0,45.0
884.22,1.4848484848484849,4.27383944740074,1689.0,66.0
884.68,12.4,4.268667033607636,1694.0,5.0
885.15,17.2,4.16243035983365,1658.0,5.0
885.61,0.9146341463414634,3.949046521449811,1679.0,82.0
886.07,0.8933333333333333,3.8224832139562706,1663.0,75.0
886.53,0.7441860465116279,3.7948938878594816,1719.0,86.0
886.99,1.5,2.6215605545261487,1674.0,84.0
887.45,0.8928571428571429,0.921560554526149,1689.0,84.0
887.91,1.1717171717171717,0.8087856644821667,1652.0,99.0
888.37,1.0232558139534884,0.810680401324272,1720.0,43.0
888.83,1.208955223880597,0.31126179667310905,1670.0,67.0
889.3,0.6666666666666666,0.22191753437802725,1744.0,-21.0
889.76,0.2,0.1803930141221636,1727.0,40.0
890.22,-0.21311475409836064,0.1484064821356317,1684.0,61.0
890.68,0.9122807017543859,0.3349697896291718,1658.0,57.0
891.14,-4.25,0.15931236247920721,1709.0,4.0
891.6,0.6065573770491803,0.3593123624792073,1679.0,61.0
892.06,0.47761194029850745,0.4237568069236517,1674.0,67.0
892.52,0.8518518518518519,0.6632501005153059,1687.0,54.0
892.98,2.888888888888889,0.6758194986942977,1698.0,9.0
893.44,-0.5476190476190477,1.1477891956639945,1708.0,42.0
893.9,2.6666666666666665,1.1621334579590765,1706.0,3.0
894.36,0.8444444444444444,1.547705597262559,1657.0,90.0
894.82,2.1818181818181817,1.6022794482219522,1636.0,44.0
895.28,1.0379746835443038,1.5111178320603362,1642.0,79.0
895.74,0.4696969696969697,1.649629736822241,1686.0,66.0
896.2,0.75,1.4744524318577017,1645.0,92.0
896.66,4.333333333333333,1.582690914242526,1677.0,9.0
897.12,1.3975903614457832,1.3895090960607075,1639.0,83.0
897.58,1.9772727272727273,1.3612671832618326,1707.0,44.0
898.04,0.8375,1.4228689148635645,1647.0,80.0
898.5,0.9148936170212766,1.4286908326717835,1649.0,94.0
898.96,1.9268292682926829,1.0563574993384504,1679.0,41.0
899.42,0.25,0.9862413203367291,1648.0,120.0
899.88,0.7555555555555555,0.8092687645905885,1650.0,45.0
900.34,1.0857142857142856,0.7540901931620169,1655.0,70.0
900.8,0.8082191780821918,0.6972782508147279,1674.0,73.0
901.26,0.61,0.6016102493585941,1677.0,100.0
903.55,0.9701492537313433,0.3599454843391068,1674.0,67.0
904.01,-8.846153846153847,0.3803026271962495,1693.0,-13.0
904.47,3.392857142857143,0.6362145768817841,1689.0,28.0
904.93,0.9935064935064936,0.19335743402464092,1586.0,154.0
905.39,1.0526315789473684,0.23440817000960829,1681.0,57.0
905.84,4.5,0.21423534989963183,1678.0,2.0
906.3,0.9,1.1721180612476898,1661.0,40.0
906.76,2.7666666666666666,0.8928323469619753,1648.0,30.0
907.22,-4.142857142857143,0.8759816976113259,1682.0,-7.0
907.68,0.7572815533980582,0.8594685397165891,1654.0,103.0
908.14,0.7684210526315789,0.5674395542093429,1657.0,95.0
908.59,0.7326732673267327,0.6028126885377012,1650.0,101.0
909.05,0.6,0.4192494701468965,1648.0,90.0
909.51,0.825,0.8835351844326108,1644.0,80.0
909.97,0.8875,0.8754540879163345,1664.0,80.0
910.43,1.5797101449275361,1.1167938008349947,1626.0,69.0
910.88,1.2537313432835822,1.2168598074356547,1621.0,67.0
911.34,0.9310344827586207,1.3771496625081185,1650.0,29.0
911.8,0.5,1.441316329174785,1658.0,40.0
912.26,0.6764705882352942,1.4547885513970074,1706.0,-34.0
912.72,3.1818181818181817,1.0468175369042536,1669.0,11.0
913.17,1.7333333333333334,1.17598985712135,1627.0,45.0
913.63,2.2028985507246377,1.2441108986414062,1658.0,69.0
914.09,1.4666666666666666,1.4289946195716392,1671.0,15.0
914.54,1.0222222222222221,1.5375380369385858,1667.0,45.0
915.0,-2.5,1.4193562187567677,1703.0,-8.0
915.46,2.5454545454545454,1.588128148581329,1680.0,33.0
915.92,1.6122448979591837,1.4558382935088652,1668.0,49.0
916.37,2.3488372093023258,1.5154216268421985,1630.0,43.0
916.83,1.7619047619047619,1.6787166459992868,1631.0,42.0
917.29,2.0,1.9754456179619035,1677.0,34.0
917.74,3.4210526315789473,1.6747463172626027,1647.0,38.0
918.2,0.88,1.6510218274666844,1654.0,75.0
918.66,2.0625,1.5000090742783871,1681.0,32.0
919.11,2.6551724137931036,1.3331935980879108,1659.0,29.0
919.57,0.4672897196261682,1.1851935980879111,1634.0,107.0
920.03,-0.46153846153846156,1.0158156076572893,1689.0,39.0
920.48,1.375,0.9989694538111354,1633.0,64.0
920.94,0.8387096774193549,0.8570051680968497,1617.0,124.0
921.4,0.09375,0.6129164981461107,1655.0,64.0
921.85,0.52,0.6754182954142631,1668.0,50.0
922.31,1.7272727272727273,0.7759410736069442,1678.0,22.0
922.77,0.7115384615384616,0.7505622857281564,1695.0,52.0
923.22,0.6428571428571429,0.7346913179862208,1671.0,56.0
923.68,0.21428571428571427,0.9824591751290781,1695.0,-14.0
924.13,1.0923076923076922,1.1745768221879016,1655.0,65.0
924.59,0.5436893203883495,1.0994966082841582,1636.0,103.0
925.05,1.121212121212121,0.978342762130312,1677.0,33.0
925.5,0.68,0.9680253018128517,1701.0,25.0
925.96,2.5714285714285716,1.3513586351461853,1674.0,28.0
926.41,2.4411764705882355,1.4695788463075727,1652.0,34.0
926.87,0.9764705882352941,2.515209914268738,1608.0,85.0
927.33,-0.5,2.455088702147526,1693.0,-24.0
927.78,0.5396825396825397,2.667088702147525,1668.0,63.0
928.24,4.0476190476190474,2.578834733893557,1651.0,21.0
928.69,2.2745098039215685,2.4637493448992496,1623.0,51.0
929.15,11.0,3.6827689527423866,1705.0,3.0
929.6,0.52,3.851287471260905,1682.0,50.0
930.06,2.8,3.7198192172926516,1657.0,15.0
930.51,1.6888888888888889,3.386485883959318,1669.0,45.0
930.97,1.2903225806451613,3.265991425306292,1670.0,31.0
931.42,13.166666666666666,2.2424620135415863,1664.0,6.0
931.88,1.1851851851851851,2.1878979109774837,1698.0,27.0
932.33,-0.775,1.863453466533039,1722.0,40.0
932.79,0.7142857142857143,1.6945645776441498,1659.0,42.0
933.24,1.0695652173913044,1.786744440791755,1631.0,115.0
933.7,0.7647058823529411,0.5594394762527483,1652.0,119.0
934.15,-0.02564102564102564,0.49630557311884516,1697.0,39.0
934.61,-0.4444444444444444,0.5904722397855118,1653.0,54.0
935.06,0.0,0.5910436683569404,1649.0,64.0
935.51,2.212121212121212,0.7193812642648688,1683.0,33.0
935.97,0.8936170212765957,0.8554106760295745,1690.0,47.0
936.42,0.5538461538461539,1.0921211200570917,1671.0,65.0
936.88,0.16666666666666666,2.26989889783487,1686.0,78.0
937.33,0.72,2.556262534198506,1678.0,50.0
937.79,2.3529411764705883,2.4837683617043336,1681.0,17.0
938.24,2.125,2.559022044192058,1680.0,24.0
938.69,2.341463414634146,2.3117455369155513,1628.0,41.0
939.15,11.333333333333334,2.154169779339794,1671.0,6.0
939.6,2.8636363636363638,2.1847338819038957,1669.0,22.0
940.06,1.4871794871794872,2.0119397642568373,1663.0,39.0
940.51,1.646153846153846,2.010550875367948,1636.0,65.0
940.96,-1.9189189189189189,1.883135303135303,1681.0,-37.0
941.42,-1.4090909090909092,0.6748019698019697,1699.0,-22.0
941.87,1.0256410256410255,0.46151525651525643,1659.0,39.0
942.32,0.625,0.3096723077973078,1656.0,56.0
942.78,2.111111111111111,0.3208144989394989,1679.0,9.0
943.23,1.0673076923076923,0.6203986985236984,1636.0,104.0
943.68,-0.75,0.9730724953151423,1679.0,-20.0
944.14,0.7307692307692307,1.0432356654783124,1683.0,52.0
944.59,-0.03125,1.1378785226211696,1636.0,96.0
945.04,1.7575757575757576,1.0743864591291061,1645.0,33.0
945.5,1.0769230769230769,1.086886459129106,1677.0,13.0
945.95,2.1176470588235294,1.2261066426153446,1656.0,17.0
946.4,1.7272727272727273,1.3096334931233273,1651.0,11.0
946.85,1.5714285714285714,1.5560017363665706,1643.0,14.0
947.31,1.4761904761904763,1.471383401115324,1690.0,-21.0
947.76,1.1923076923076923,1.3899622798636944,1664.0,26.0
948.21,0.6422018348623854,1.2499622798636942,1600.0,109.0
948.66,1.5660377358490567,1.172790562691977,1621.0,53.0
949.12,2.4324324324324325,1.0556477055491198,1624.0,37.0
949.57,0.9113924050632911,1.3969175468189614,1627.0,79.0
950.02,0.2627118644067797,1.37583492573634,1654.0,118.0
950.47,0.7176470588235294,1.4239224345577937,1631.0,85.0
950.93,0.9555555555555556,1.8806519943062217,1643.0,45.0
951.38,0.4,1.7569739684542824,1727.0,-10.0
951.83,4.888888888888889,1.7762824891419833,1686.0,9.0
952.28,0.9814814814814815,3.4500113027013057,1621.0,54.0
952.73,1.123076923076923,3.5678299301522856,1640.0,65.0
953.19,6.133333333333334,3.56727437459673,1653.0,15.0
953.64,1.1956521739130435,3.587988660311016,1615.0,92.0
954.09,1.1044776119402986,3.183715156037511,1652.0,67.0
954.54,17.0,3.1132593155816712,1688.0,4.0
954.99,1.8958333333333333,3.1335603189261527,1640.0,48.0
955.44,0.95,2.691655557021391,1666.0,80.0
955.9,0.6071428571428571,2.6289530847281255,1706.0,28.0
956.35,0.8461538461538461,2.6823942124229845,1669.0,39.0
956.8,0.27692307692307694,0.7490608790896512,1678.0,65.0
957.25,1.326086956521739,0.9011442124229849,1654.0,46.0
957.7,1.7142857142857142,1.2186442124229846,1646.0,14.0
958.15,0.5686274509803921,1.2134854822642545,1717.0,-51.0
958.6,1.6388888888888888,1.2271751823946326,1664.0,36.0
959.06,-2.3333333333333335,1.4031865784060287,1718.0,12.0
959.51,3.4166666666666665,1.3991493113252835,1710.0,-12.0
959.96,4.125,2.727720739896712,1653.0,8.0
960.41,0.5555555555555556,2.715302439243117,1663.0,18.0
960.86,0.9830508474576272,2.5332317321724096,1624.0,59.0
961.31,2.037037037037037,2.8114630246894166,1675.0,27.0
961.76,1.2857142857142858,2.53979635802275,1684.0,7.0
962.21,15.0,2.22729635802275,1683.0,2.0
962.66,0.4444444444444444,2.1630451502932817,1682.0,-36.0
963.11,-0.18181818181818182,2.1012265520340057,1701.0,11.0
963.56,0.4489795918367347,1.8483703059574206,1669.0,49.0
964.01,0.7,1.7504919466929227,1696.0,20.0
964.46,1.0,0.3604919466929225,1714.0,-7.0
964.91,-0.08695652173913043,0.4243808355818114,1663.0,23.0
965.36,0.36486486486486486,-2.257437346236371,1641.0,74.0
965.81,-0.4915254237288136,-1.9123353054200436,1684.0,59.0
966.26,0.3069306930693069,-1.9397821139306821,1620.0,101.0
966.71,1.1,-1.9963038530611164,1630.0,50.0
967.16,1.0833333333333333,-2.1876082008872038,1681.0,72.0
967.61,-27.0,-2.1554996460513762,1655.0,-2.0
968.06,3.9,-1.9915322888636802,1670.0,10.0
968.51,0.425531914893617,-1.894447580392833,1684.0,47.0
968.96,0.43478260869565216,-1.9271748531201056,1664.0,46.0
969.41,-2.0,-1.9593177102629626,1654.0,-10.0
969.86,0.6859504132231405,0.8823489564037036,1607.0,121.0
970.31,1.1481481481481481,0.4900233750083548,1598.0,108.0
970.76,1.2777777777777777,0.49068006006220305,1646.0,18.0
971.21,0.7727272727272727,0.46920179919263777,1628.0,88.0
971.66,0.7619047619047619,0.35809068808152655,1669.0,42.0
972.11,1.4166666666666667,0.48949564675921264,1684.0,36.0
972.56,-0.023255813953488372,0.25294170150961515,1654.0,43.0
973.01,0.43209876543209874,0.22824084680876053,1635.0,81.0
973.45,0.22,0.21126223718309206,1661.0,50.0
973.9,-3.111111111111111,0.21249111583132557,1686.0,9.0
974.35,2.0,0.06779414613435579,1648.0,14.0
974.8,-1.2173913043478262,0.07011972752970463,1690.0,-23.0
975.25,1.0307692307692307,0.08272380447486688,1624.0,65.0
975.7,0.6029411764705882,0.09601792212192567,1645.0,68.0
976.15,0.7741935483870968,0.2960179221219256,1641.0,31.0
976.6,-0.030303030303030304,0.36712903323303686,1682.0,-33.0
977.04,0.0,0.516287518506529,1662.0,0.0
977.49,0.5581395348837209,0.4778259800449906,1667.0,43.0
977.94,0.35294117647058826,0.5207576688495448,1678.0,17.0
978.39,-1.1111111111111112,0.5566716473441684,1697.0,-27.0
978.84,2.7111111111111112,0.708977312693312,1646.0,45.0
979.29,0.27419354838709675,0.7134217571377564,1669.0,62.0
979.73,0.6461538461538462,0.7554801440749163,1649.0,65.0
980.18,1.032258064516129,0.7432629495047806,1693.0,31.0
980.63,1.1333333333333333,1.2377073939492251,1684.0,15.0
981.08,1.4927536231884058,1.030658782838114,1634.0,69.0
981.52,0.044444444444444446,0.9973570750582277,1662.0,45.0
981.97,0.9787234042553191,1.1502416904428432,1627.0,94.0
982.42,0.23076923076923078,1.131864368839715,1694.0,13.0
982.87,3.8333333333333335,1.0894987774418654,1655.0,18.0
983.32,0.640625,1.1802234151230249,1660.0,64.0
983.76,-0.058823529411764705,1.3368900817896918,1693.0,-17.0
984.21,2.175,1.3056844080308263,1666.0,40.0
984.66,0.8484848484848485,1.3400148923613104,1623.0,99.0
985.1,0.7096774193548387,1.3709672733136917,1592.0,93.0
985.55,2.4,1.5992124656213842,1618.0,25.0
986.0,1.6111111111111112,1.575307584520007,1640.0,72.0
986.45,0.6666666666666666,1.367485003874846,1635.0,90.0
986.89,0.5740740740740741,1.3002835778498905,1646.0,54.0
987.34,4.142857142857143,1.4721729787715496,1689.0,-7.0
987.79,2.923076923076923,1.2380553317127259,1685.0,-13.0
988.23,-0.2978723404255319,1.1574320254796637,1692.0,47.0
988.68,0.0967741935483871,1.263936090520314,1647.0,93.0
989.13,0.17647058823529413,0.47319534977957317,1693.0,68.0
989.57,2.4285714285714284,0.12206753023070116,1664.0,28.0
990.02,0.058823529411764705,-0.10572403304473298,1693.0,34.0
990.47,0.8048780487804879,-0.5926034656688468,1663.0,41.0
990.91,1.7317073170731707,-0.032280885023684924,1647.0,41.0
991.36,-7.333333333333333,-0.04992794384721455,1700.0,-3.0
991.81,0.631578947368421,-0.08028508670435741,1692.0,-19.0
992.25,0.6451612903225806,-0.03116743964553395,1715.0,-62.0
992.7,-5.166666666666667,-0.3183219111902495,1686.0,-6.0
993.14,5.7,-0.3054926428975665,1651.0,10.0
993.59,0.0,0.5797394246129821,1657.0,9.0
994.04,2.125,0.5345302478248579,1684.0,8.0
994.48,0.55,0.5423825398452315,1694.0,20.0
994.93,-2.066666666666667,1.1423825398452314,1702.0,-15.0
995.37,1.86,4.3723825398452325,1655.0,50.0
995.82,1.518987341772152,4.494441363374643,1619.0,79.0
996.26,0.1794871794871795,4.290512791946072,1642.0,39.0
996.71,0.7236842105263158,4.323012791946072,1629.0,76.0
997.16,0.8333333333333334,4.560983806438826,1635.0,66.0
997.6,38.0,4.443872695327714,1684.0,1.0
998.05,1.2205882352941178,4.405017439411369,1654.0,68.0
998.49,0.08571428571428572,4.709290943684873,1678.0,35.0
998.94,0.875,4.6502558559655744,1656.0,32.0
999.38,0.3130434782608696,4.574987038761273,1641.0,115.0
999.83,0.6888888888888889,0.8369870387612734,1651.0,45.0
1000.27,1.1304347826086956,0.786140336443983,1615.0,46.0
1000.72,3.2222222222222223,0.9394736697773163,1654.0,18.0
1001.16,0.13333333333333333,0.9458761088017065,1697.0,45.0
1001.61,0.08064516129032258,0.9812384276422861,1656.0,62.0
1002.05,0.62,1.0831828720867307,1664.0,50.0
1002.5,0.7121212121212122,1.163889393825861,1651.0,66.0
1002.94,1.619047619047619,0.9130957430322102,1653.0,42.0
1003.39,0.9390243902439024,0.8900849903440382,1643.0,82.0
1003.83,0.6666666666666666,0.9325467900044796,1683.0,66.0
1004.27,1.7083333333333333,1.0305467900044796,1663.0,24.0
1004.72,1.9375,1.0074828169405066,1695.0,16.0
1005.16,0.7142857142857143,0.5273962368539264,1656.0,70.0
1005.61,-0.0967741935483871,0.6384937978295364,1701.0,31.0
1006.05,0.5052631578947369,0.5059180402537787,1633.0,95.0
1006.5,1.6,0.473546245381984,1661.0,20.0
1006.94,0.48148148148148145,0.529796245381984,1735.0,-27.0
1007.38,-3.1818181818181817,0.6536057691915078,1716.0,22.0
1007.83,2.05,0.7299498552130131,1668.0,-20.0
1008.27,-0.6590909090909091,0.6312753912753912,1672.0,44.0
1008.71,1.3846153846153846,0.6271577442165677,1665.0,39.0
1009.16,2.5,0.6378984849573084,1644.0,42.0
1009.6,1.9523809523809523,1.0068495339083574,1653.0,42.0
1010.05,0.6666666666666666,0.7279364904300965,1699.0,9.0
1010.49,-0.48148148148148145,0.8811471686407747,1687.0,27.0
1010.93,1.5588235294117647,0.7839899780053232,1675.0,34.0
1011.38,0.5888888888888889,0.6095218928989403,1614.0,90.0
1011.82,0.5076923076923077,0.6172249741314333,1621.0,65.0
1012.26,-0.7391304347826086,0.48627259317905225,1676.0,46.0
1012.71,0.873015873015873,0.8170294369793744,1673.0,63.0
1013.15,0.41304347826086957,0.7060188789099928,1696.0,46.0
1013.59,0.7553191489361702,0.7344863118601842,1618.0,94.0
1014.03,2.0294117647058822,0.7825807174545899,1650.0,34.0
1014.48,-0.6428571428571429,0.8350651895042794,1678.0,28.0
1014.92,2.8260869565217392,0.7986110598298106,1718.0,-23.0
1015.36,0.44871794871794873,1.0880759427729547,1643.0,78.0
1015.81,0.8735632183908046,1.4554011707364805,1619.0,87.0
1016.25,0.9886363636363636,1.23023777204367,1599.0,88.0
1016.69,-0.21428571428571427,1.399608232092096,1669.0,42.0
1017.13,0.5084745762711864,0.29881771825810355,1599.0,118.0
1017.58,3.3076923076923075,0.3221277415681272,1644.0,13.0
1018.02,4.428571428571429,0.059771419729046704,1685.0,-7.0
1018.46,-0.2222222222222222,0.36090778336541046,1713.0,-36.0
1018.9,1.0508474576271187,0.5080244281884774,1651.0,59.0
1019.35,-8.181818181818182,0.5287559179297796,1673.0,-11.0
1019.79,0.6818181818181818,0.3373806265544883,1681.0,-22.0
1020.23,-1.75,0.022301261475123152,1665.0,-8.0
1020.67,4.0,0.04452348369734552,1647.0,13.0
1021.11,1.2568807339449541,0.10785979056621256,1585.0,109.0
1021.55,0.7157894736842105,0.9374701801766021,1627.0,95.0
1022.0,1.393939393939394,0.9160968726330818,1638.0,66.0
1022.44,1.2777777777777777,1.1959749214135695,1652.0,36.0
1022.88,0.0,0.8699475241532957,1695.0,0.0
1023.32,1.6842105263157894,0.8654132969126465,1675.0,19.0
1023.76,0.11428571428571428,0.8719593495442254,1678.0,35.0
1024.2,0.46808510638297873,0.7545993084553707,1648.0,47.0
1024.65,1.048780487804878,0.7281035819596442,1660.0,41.0
1025.09,0.7397260273972602,0.7793230941547661,1665.0,73.0
1025.53,1.2115384615384615,0.7230232536443993,1628.0,52.0
1025.97,0.78125,0.7453446822158278,1697.0,-32.0
1026.41,0.22033898305084745,2.0652028382441974,1649.0,59.0
1026.85,1.0128205128205128,2.0781819323208515,1628.0,78.0
1027.29,0.5121951219512195,2.081402312037266,1635.0,82.0
1027.73,1.121212121212121,1.8459627515977055,1629.0,66.0
1028.17,0.3375,1.9499806087405624,1622.0,80.0
1028.61,13.666666666666666,2.1226835525407406,1676.0,3.0
1029.06,1.1785714285714286,2.135687215544404,1662.0,28.0
1029.5,0.7719298245614035,2.196372465254044,1671.0,57.0
1029.94,-1.1428571428571428,2.1477127915943703,1728.0,7.0
1030.38,1.8214285714285714,2.2237988571681404,1662.0,28.0
1030.82,1.9473684210526316,0.966656000025284,1656.0,38.0
1031.26,1.1428571428571428,1.1987988571681412,1683.0,21.0
1031.7,1.119047619047619,1.1866058747120007,1640.0,84.0
1032.14,0.6346153846153846,1.3703831144214438,1643.0,52.0
1032.58,1.098360655737705,1.1882402572785864,1595.0,61.0
1033.02,1.0952380952380953,1.082633849955932,1598.0,84.0
1033.46,3.5,0.3047117720338539,1617.0,40.0
1033.9,0.65,0.3548759756463338,1692.0,40.0
1034.34,0.6949152542372882,0.3476644371847952,1676.0,59.0
1034.78,0.0,0.36238977511979675,1699.0,39.0
1035.22,0.8913043478260869,0.3728659655959873,1684.0,46.0
1035.66,-6.636363636363637,0.11417031342207419,1718.0,-11.0
1036.1,1.6206896551724137,0.04639253564429635,1659.0,29.0
1036.54,0.5625,-0.1830989897794325,1658.0,16.0
1036.98,1.2456140350877194,-1.0580989897794328,1672.0,57.0
1037.42,1.2,-2.3472294245620415,1723.0,15.0
1037.85,0.9130434782608695,-1.6065097275923441,1732.0,-46.0
1038.29,-0.027777777777777776,-1.9542929788238714,1695.0,-36.0
1038.73,-1.6,-1.8968443486868847,1687.0,-10.0
1039.17,-8.75,-2.0062542370441414,1681.0,-4.0
1039.61,-12.0,-2.0313824421723465,1679.0,-1.0
1040.05,0.7708333333333334,-2.1016341584194858,1636.0,48.0
1040.49,-1.8571428571428572,-1.9528037490627608,1661.0,14.0
1040.93,1.1369863013698631,-1.6973492036082156,1661.0,73.0
1041.37,0.15151515151515152,-0.6836825369415492,1656.0,33.0
1041.81,0.9487179487179487,0.5690952408362286,1629.0,39.0
1042.24,0.21052631578947367,0.655648271139259,1687.0,19.0
1042.68,1.4605263157894737,0.9569875568535446,1665.0,76.0
1043.12,0.9545454545454546,1.2785830443636172,1633.0,88.0
1043.56,1.3866666666666667,1.359983253350033,1626.0,75.0
1044.0,0.5277777777777778,1.265111458478238,1667.0,36.0
1044.44,1.6363636363636365,1.3542150768992907,1639.0,44.0
1044.88,1.15625,1.277770288457598,1668.0,32.0
1045.31,4.352941176470588,1.1108871715744812,1619.0,17.0
1045.75,0.9655172413793104,1.341451274138584,1661.0,58.0
1046.19,0.0,1.1991998121502798,1672.0,48.0
1046.63,1.1015625,1.1430903302343463,1598.0,128.0
1047.07,0.696078431372549,1.1225872814538582,1604.0,102.0
1047.5,-0.7142857142857143,0.7519273101482632,1686.0,21.0
1047.94,3.6923076923076925,0.7249408034016362,1707.0,-13.0
1048.38,-0.8947368421052632,0.8449408034016366,1737.0,-19.0
1048.82,1.075268817204301,0.8490702676873506,1632.0,93.0
1049.25,0.9512195121951219,0.8294624245500957,1671.0,41.0
1049.69,0.6463414634146342,0.9908909959786671,1637.0,82.0
1050.13,0.6956521739130435,0.4029102267478979,1647.0,92.0
1050.57,1.2,0.4923839109584244,1623.0,70.0
1051.0,1.1428571428571428,0.26746572489016807,1665.0,49.0
1051.44,0.5,0.3238589251858076,1739.0,-36.0
1051.88,0.9,0.3725581121776773,1667.0,20.0
1052.31,-2.1875,0.45516680782985136,1708.0,-16.0
1052.75,0.0,0.5444691334112468,1697.0,0.0
1053.19,-1.173913043478261,0.5660324757293059,1671.0,-23.0
1053.63,1.5151515151515151,0.42269914239597256,1646.0,33.0
1054.06,1.1333333333333333,0.41731452701135724,1660.0,30.0
1054.5,1.5217391304347827,-0.46393547298864307,1630.0,46.0
1054.94,2.0930232558139537,-0.477268806321976,1652.0,43.0
1055.37,1.3584905660377358,-0.33175250197414985,1680.0,53.0
1055.81,-0.9333333333333333,-0.486252728116167,1688.0,-15.0
1056.25,0.8461538461538461,-0.3571618190252577,1634.0,91.0
1056.68,-11.0,-0.3882246209576252,1662.0,-1.0
1057.12,-0.13333333333333333,-0.5500269465390205,1665.0,15.0
1057.55,0.28125,-0.6358760031427941,1745.0,-64.0
1057.99,-0.029850746268656716,-0.4074777347445258,1654.0,67.0
1058.43,2.4242424242424243,-0.3851965676357724,1653.0,33.0
1058.86,1.211111111111111,0.7981367656975608,1637.0,90.0
1059.3,0.475,0.8321597542033079,1703.0,40.0
1059.74,0.5,1.05109357773272,1670.0,24.0
1060.17,1.3506493506493507,0.8540786523595854,1597.0,77.0
1060.61,1.0689655172413792,0.5783210766020097,1660.0,29.0
1061.04,0.8333333333333334,0.6272099654908987,1654.0,36.0
1061.48,0.20689655172413793,0.6897099654908987,1652.0,29.0
1061.91,2.4705882352941178,0.7323025580834911,1658.0,17.0
1062.35,-2.0,-3.2027623769814455,1665.0,-17.0
1062.78,-0.3333333333333333,-3.1096589287055814,1681.0,-3.0
1063.22,1.7,-3.015380321740407,1645.0,40.0
1063.66,1.1,-2.911069976912821,1651.0,20.0
1064.09,0.9259259259259259,-3.314650539572668,1648.0,54.0
1064.53,-38.0,-3.2713172062393348,1680.0,-2.0
1064.96,2.0,-3.1440444789666073,1673.0,42.0
1065.4,1.7761194029850746,-2.9015444789666076,1610.0,67.0
1065.83,1.25,-2.8893222567443853,1641.0,60.0
1066.27,-1.565217391304348,-2.8807100300598694,1692.0,-23.0
1066.7,-1.5666666666666667,0.9738354244855851,1707.0,-30.0
1067.14,0.9393939393939394,0.7896248981697956,1670.0,33.0
1067.57,4.125,0.21970526556359574,1700.0,8.0
1068.01,1.2222222222222223,0.6018481227064534,1644.0,54.0
1068.44,1.0120481927710843,0.838369861836888,1619.0,83.0
1068.87,0.5454545454545454,1.0487402322072583,1677.0,44.0
1069.31,0.15789473684210525,1.053285686752713,1700.0,57.0
1069.74,-3.923076923076923,0.5685634645304904,1691.0,-13.0
1070.18,5.071428571428571,0.3784840994511255,1688.0,14.0
1070.61,0.8,0.3957977986925356,1687.0,-5.0
1071.05,0.5370370370370371,0.42228682690570174,1680.0,54.0
1071.48,0.9848484848484849,1.3207830675072059,1698.0,66.0
1071.91,-0.7222222222222222,1.8876939344180723,1735.0,-18.0
1072.35,-0.6785714285714286,1.4686463153704532,1726.0,-56.0
1072.78,1.1851851851851851,1.3698057356603082,1672.0,27.0
1073.22,0.8103448275862069,1.2881020319566043,1641.0,58.0
1073.65,9.142857142857142,1.2166013104558828,1699.0,-7.0
1074.08,1.746031746031746,1.180823532678105,1620.0,63.0
1074.52,0.8809523809523809,1.3444553234225718,1662.0,42.0
1074.95,-0.18840579710144928,1.4318191578452297,1681.0,69.0
1075.38,-0.28,1.4463890706910048,1696.0,-25.0
1075.82,0.2698412698412698,0.6387700230719574,1667.0,63.0
1076.25,-1.08,1.0475001818021161,1715.0,50.0
1076.68,0.9577464788732394,1.2111290816379126,1649.0,71.0
1077.12,2.0588235294117645,1.3261235075019036,1688.0,34.0
1077.55,0.9560439560439561,1.6141235075019038,1607.0,91.0
1077.98,1.0666666666666667,1.6400805569883647,1681.0,30.0
1078.42,5.833333333333333,1.884845262870718,1667.0,12.0
1078.85,2.5172413793103448,1.911292837205616,1648.0,29.0
1079.28,0.9615384615384616,1.5196961985501536,1631.0,52.0
1079.71,2.6,1.5115918029457582,1665.0,20.0
1080.15,0.5294117647058824,1.4529251362790916,1633.0,85.0
1080.58,1.3676470588235294,1.3435048464240191,1612.0,68.0
1081.01,1.2222222222222223,0.9517807084929846,1735.0,-36.0
1081.44,-1.8571428571428572,0.9325499392622155,1657.0,-14.0
1081.88,0.875,1.2475499392622158,1672.0,16.0
1082.31,0.48,1.2390532072360716,1652.0,75.0
1082.74,4.739130434782608,1.6022885013537191,1665.0,23.0
1083.17,-1.4,1.7063820686051807,1699.0,-10.0
1083.61,0.7692307692307693,2.1254296876527996,1654.0,65.0
1084.04,5.75,2.2479296876527997,1705.0,-4.0
1084.47,0.4444444444444444,2.333263020986133,1720.0,-36.0
1084.9,5.0,2.0216141284512688,1695.0,6.0
1085.33,2.263157894736842,2.3727252395623797,1690.0,19.0
1085.77,2.3333333333333335,2.344802162639303,1668.0,21.0
1086.2,2.1,1.8672380600751999,1664.0,20.0
1086.63,1.3333333333333333,1.7749358016289478,1671.0,15.0
1087.06,1.6226415094339623,1.590331284736447,1651.0,53.0
1087.49,2.111111111111111,1.4057267678439462,1647.0,54.0
1087.92,0.49,1.2211222509514454,1636.0,100.0
1088.36,0.9743589743589743,1.0365177340589447,1680.0,39.0
